# Matter power spectrum P(k) at redshift z=0
# for k=2.09814e-07 to 10.5263 h/Mpc,
# number of wavenumbers equal to 139
#    1:k (h/Mpc)              2:P (Mpc/h)^3        
       2.098140192535e-07       1.227003350690e+00 
       2.641402005889e-07       1.528113978255e+00 
       3.325328107978e-07       1.903118136011e+00 
       4.186340057686e-07       2.370149536652e+00 
       5.270289881033e-07       2.951791964317e+00 
       6.634901858755e-07       3.676171335478e+00 
       8.352846554746e-07       4.578315755042e+00 
       1.051561078859e-06       5.701849332195e+00 
       1.323836964229e-06       7.101101661128e+00 
       1.666611995340e-06       8.843734968897e+00 
       2.098140192535e-06       1.101401596045e+01 
       2.641402005889e-06       1.371689055962e+01 
       3.325328107978e-06       1.708305855323e+01 
       4.186340057686e-06       2.127529347266e+01 
       5.270289881033e-06       2.649631319103e+01 
       6.634901858755e-06       3.299858160559e+01 
       8.352846554746e-06       4.109651491460e+01 
       1.051561078859e-05       5.118168182707e+01 
       1.323836964229e-05       6.374173096061e+01 
       1.666611995340e-05       7.938395715687e+01 
       2.098140192535e-05       9.886463936679e+01 
       2.641402005889e-05       1.231255550917e+02 
       3.325328107978e-05       1.533394101449e+02 
       4.186340057686e-05       1.909663274506e+02 
       5.270289881033e-05       2.378240220348e+02 
       6.634901858755e-05       2.961748504916e+02 
       8.352846554746e-05       3.688335426882e+02 
       1.051561078859e-04       4.593000424333e+02 
       1.323836964229e-04       5.719223662565e+02 
       1.666611995340e-04       7.120944594006e+02 
       2.098140192535e-04       8.864931797725e+02 
       2.641402005889e-04       1.103355956747e+03 
       3.325328107978e-04       1.372795286472e+03 
       4.186340057686e-04       1.707137242940e+03 
       5.270289881033e-04       2.121259242860e+03 
       6.634901858755e-04       2.632889294172e+03 
       8.352846554746e-04       3.262807851617e+03 
       1.051561078859e-03       4.034823318346e+03 
       1.323836964229e-03       4.975237577587e+03 
       1.666611995340e-03       6.111449889571e+03 
       2.098140192535e-03       7.469403703641e+03 
       2.641402005889e-03       9.069305802487e+03 
       3.325328107978e-03       1.091929648935e+04 
       4.186340057686e-03       1.300701810747e+04 
       5.270289881033e-03       1.523377017806e+04 
       6.634901858755e-03       1.759467337734e+04 
       8.352846554746e-03       1.990250212750e+04 
       1.051561078859e-02       2.193470168451e+04 
       1.323836964229e-02       2.339115366143e+04 
       1.666611995337e-02       2.391261805031e+04 
       2.098140171937e-02       2.315813642137e+04 
       2.641387140479e-02       2.098888779362e+04 
       3.323357968019e-02       1.775108065812e+04 
       4.123299361229e-02       1.455242497290e+04 
       4.790632219269e-02       1.272328290302e+04 
       5.275920367973e-02       1.179935350779e+04 
       5.677246018531e-02       1.120654680462e+04 
       6.036109956609e-02       1.075003571290e+04 
       6.371102674430e-02       1.034834714199e+04 
       6.692101071878e-02       9.960779303680e+03 
       7.005043409568e-02       9.565941678969e+03 
       7.313838240686e-02       9.153845973411e+03 
       7.621244612034e-02       8.722339672415e+03 
       7.929323714499e-02       8.275045013726e+03 
       8.239690320693e-02       7.819776121488e+03 
       8.553661991220e-02       7.367052871363e+03 
       8.872352263282e-02       6.928611937374e+03 
       9.196731331326e-02       6.515953629801e+03 
       9.527666941147e-02       6.139023015568e+03 
       9.865952743487e-02       5.805126307080e+03 
       1.021232841748e-01       5.518150835336e+03 
       1.056749422534e-01       5.278111548832e+03 
       1.093212169616e-01       5.081019453524e+03 
       1.130686155477e-01       4.919081484068e+03 
       1.169234964907e-01       4.781287253212e+03 
       1.208921139910e-01       4.654487050681e+03 
       1.249806514135e-01       4.525047019095e+03 
       1.291952464314e-01       4.381025427713e+03 
       1.335420099682e-01       4.214543651458e+03 
       1.380270405956e-01       4.023728994975e+03 
       1.426564357595e-01       3.813478827861e+03 
       1.474363010126e-01       3.594519546931e+03 
       1.523727583097e-01       3.380808253954e+03 
       1.574719543447e-01       3.185983734958e+03 
       1.627400698563e-01       3.019928215181e+03 
       1.681833308004e-01       2.886361349092e+03 
       1.738080222677e-01       2.781953499842e+03 
       1.796205060114e-01       2.697109814361e+03 
       1.856272424417e-01       2.618474273106e+03 
       1.918348179389e-01       2.532976392334e+03 
       1.982499783411e-01       2.432466532889e+03 
       2.048796694758e-01       2.316968673638e+03 
       2.117310856382e-01       2.194512271877e+03 
       2.188117269762e-01       2.077172757605e+03 
       2.261294668449e-01       1.975310981920e+03 
       2.336926303379e-01       1.892992604383e+03 
       2.415100854242e-01       1.826599496087e+03 
       2.495913484286e-01       1.767058284134e+03 
       2.579467060120e-01       1.704820782598e+03 
       2.665873563799e-01       1.635264813934e+03 
       2.755255732043e-01       1.561060403654e+03 
       2.847748967482e-01       1.489512971753e+03 
       2.943503580080e-01       1.426860327028e+03 
       3.042687434488e-01       1.373958688795e+03 
       3.145489102466e-01       1.326360464516e+03 
       3.252121650992e-01       1.278428721663e+03 
       3.362827239310e-01       1.228101923136e+03 
       3.477882756744e-01       1.178010593883e+03 
       3.597606814539e-01       1.131963329765e+03 
       3.722368519986e-01       1.090776023864e+03 
       3.852598625897e-01       1.051912671302e+03 
       3.988803888968e-01       1.012909537253e+03 
       4.131585827853e-01       9.741468794619e+02 
       4.281665613542e-01       9.374680602132e+02 
       4.439917664577e-01       9.030780842903e+02 
       4.607415854189e-01       8.695157228614e+02 
       4.785498415047e-01       8.362253926090e+02 
       4.975861293656e-01       8.039275168340e+02 
       5.180696089577e-01       7.725554200861e+02 
       5.402900263025e-01       7.413405230018e+02 
       5.646409116525e-01       7.102591999150e+02 
       5.916742382783e-01       6.791463250181e+02 
       6.221949245829e-01       6.474116184908e+02 
       6.574339212312e-01       6.146419677728e+02 
       6.993874264609e-01       5.799792177572e+02 
       7.515348877528e-01       5.422064118887e+02 
       8.204808261238e-01       4.992442646582e+02 
       9.198309510026e-01       4.476267908395e+02 
       1.077254073874e+00       3.828132548359e+02 
       1.327225527361e+00       3.065575821975e+02 
       1.668346862746e+00       2.336432894959e+02 
       2.100278141174e+00       1.714756545937e+02 
       2.644093360171e+00       1.211632016736e+02 
       3.328716322194e+00       8.265001159857e+01 
       4.190605566664e+00       5.470015810952e+01 
       5.275659838680e+00       3.531551758080e+01 
       6.641662234896e+00       2.235510778159e+01 
       8.361357364064e+00       1.393572908694e+01 
       1.052632526271e+01       8.586038957550e+00 
