# Matter power spectrum P(k) at redshift z=0.5
# for k=2.09814e-07 to 10.5263 h/Mpc,
# number of wavenumbers equal to 139
#    1:k (h/Mpc)              2:P (Mpc/h)^3        
       2.098140192535e-07       6.884558141552e-01 
       2.641402005889e-07       8.559848371859e-01 
       3.325328107978e-07       1.064280417361e+00 
       4.186340057686e-07       1.323262699245e+00 
       5.270289881033e-07       1.645265797631e+00 
       6.634901858755e-07       2.045625212959e+00 
       8.352846554746e-07       2.543408188856e+00 
       1.051561078859e-06       3.162321793450e+00 
       1.323836964229e-06       3.931841971975e+00 
       1.666611995340e-06       4.888617340189e+00 
       2.098140192535e-06       6.078214570048e+00 
       2.641402005889e-06       7.557288484970e+00 
       3.325328107978e-06       9.396280199549e+00 
       4.186340057686e-06       1.168277177706e+01 
       5.270289881033e-06       1.452565710250e+01 
       6.634901858755e-06       1.806032750159e+01 
       8.352846554746e-06       2.245511883463e+01 
       1.051561078859e-05       2.791932664320e+01 
       1.323836964229e-05       3.471317017824e+01 
       1.666611995340e-05       4.316017805016e+01 
       2.098140192535e-05       5.366258185614e+01 
       2.641402005889e-05       6.672044396332e+01 
       3.325328107978e-05       8.295541676962e+01 
       4.186340057686e-05       1.031402381041e+02 
       5.270289881033e-05       1.282353146874e+02 
       6.634901858755e-05       1.594340322931e+02 
       8.352846554746e-05       1.982187475854e+02 
       1.051561078859e-04       2.464297324401e+02 
       1.323836964229e-04       3.063495867390e+02 
       1.666611995340e-04       3.808056658733e+02 
       2.098140192535e-04       4.732926126766e+02 
       2.641402005889e-04       5.881156793578e+02 
       3.325328107978e-04       7.305525089992e+02 
       4.186340057686e-04       9.070257541002e+02 
       5.270289881033e-04       1.125271381168e+03 
       6.634901858755e-04       1.394479442383e+03 
       8.352846554746e-04       1.725376624815e+03 
       1.051561078859e-03       2.130199314921e+03 
       1.323836964229e-03       2.622429928408e+03 
       1.666611995340e-03       3.216061271449e+03 
       2.098140192535e-03       3.924210683294e+03 
       2.641402005889e-03       4.756906401320e+03 
       3.325328107978e-03       5.717785918615e+03 
       4.186340057686e-03       6.799745897971e+03 
       5.270289881033e-03       7.979110659260e+03 
       6.634901858755e-03       9.208817690750e+03 
       8.352846554746e-03       1.041122969391e+04 
       1.051561078859e-02       1.147131240847e+04 
       1.323836964229e-02       1.223358311024e+04 
       1.666611995337e-02       1.251107788493e+04 
       2.098140171937e-02       1.212473519529e+04 
       2.641387140479e-02       1.099853573774e+04 
       3.323357968019e-02       9.307960345735e+03 
       4.123299361229e-02       7.628756257432e+03 
       4.790632219269e-02       6.662613709304e+03 
       5.275920367973e-02       6.171403375354e+03 
       5.677246018531e-02       5.854209022008e+03 
       6.036109956609e-02       5.608530974675e+03 
       6.371102674430e-02       5.391427571966e+03 
       6.692101071878e-02       5.181435772515e+03 
       7.005043409568e-02       4.967290140296e+03 
       7.313838240686e-02       4.743754218790e+03 
       7.621244612034e-02       4.509732344231e+03 
       7.929323714499e-02       4.267174600638e+03 
       8.239690320693e-02       4.020237715190e+03 
       8.553661991220e-02       3.774502674475e+03 
       8.872352263282e-02       3.536195164253e+03 
       9.196731331326e-02       3.311425680586e+03 
       9.527666941147e-02       3.105496456123e+03 
       9.865952743487e-02       2.922325365041e+03 
       1.021232841748e-01       2.764022743178e+03 
       1.056749422534e-01       2.630636674148e+03 
       1.093212169616e-01       2.520070843306e+03 
       1.130686155477e-01       2.428187365747e+03 
       1.169234964907e-01       2.349128473330e+03 
       1.208921139910e-01       2.275910611453e+03 
       1.249806514135e-01       2.201325351389e+03 
       1.291952464314e-01       2.119100522982e+03 
       1.335420099682e-01       2.025136747157e+03 
       1.380270405956e-01       1.918496890857e+03 
       1.426564357595e-01       1.801778977182e+03 
       1.474363010126e-01       1.680622985865e+03 
       1.523727583097e-01       1.562377859592e+03 
       1.574719543447e-01       1.454268281318e+03 
       1.627400698563e-01       1.361581569341e+03 
       1.681833308004e-01       1.286354437445e+03 
       1.738080222677e-01       1.226853621451e+03 
       1.796205060114e-01       1.177978558555e+03 
       1.856272424417e-01       1.132623214539e+03 
       1.918348179389e-01       1.083858637047e+03 
       1.982499783411e-01       1.027378228600e+03 
       2.048796694758e-01       9.631775554127e+02 
       2.117310856382e-01       8.954665368654e+02 
       2.188117269762e-01       8.306382683428e+02 
       2.261294668449e-01       7.742586703253e+02 
       2.336926303379e-01       7.285820856889e+02 
       2.415100854242e-01       6.917195480116e+02 
       2.495913484286e-01       6.587955601283e+02 
       2.579467060120e-01       6.246422649735e+02 
       2.665873563799e-01       5.867207936690e+02 
       2.755255732043e-01       5.464193419201e+02 
       2.847748967482e-01       5.076854589114e+02 
       2.943503580080e-01       4.739718952731e+02 
       3.042687434488e-01       4.458178833901e+02 
       3.145489102466e-01       4.207949902990e+02 
       3.252121650992e-01       3.957487458662e+02 
       3.362827239310e-01       3.694777452122e+02 
       3.477882756744e-01       3.434311527091e+02 
       3.597606814539e-01       3.197951685516e+02 
       3.722368519986e-01       2.990916798323e+02 
       3.852598625897e-01       2.798778422050e+02 
       3.988803888968e-01       2.606954557573e+02 
       4.131585827853e-01       2.417510580934e+02 
       4.281665613542e-01       2.241728163331e+02 
       4.439917664577e-01       2.081332275939e+02 
       4.607415854189e-01       1.927551351733e+02 
       4.785498415047e-01       1.777003204140e+02 
       4.975861293656e-01       1.634706285675e+02 
       5.180696089577e-01       1.500884354819e+02 
       5.402900263025e-01       1.371028679055e+02 
       5.646409116525e-01       1.245879492047e+02 
       5.916742382783e-01       1.125664569953e+02 
       6.221949245829e-01       1.007994082762e+02 
       6.574339212312e-01       8.927711839767e+01 
       6.993874264609e-01       7.781093974755e+01 
       7.515348877528e-01       6.624445513519e+01 
       8.204808261238e-01       5.433375532849e+01 
       9.198309510026e-01       4.185555179131e+01 
       1.077254073874e+00       2.904253702057e+01 
       1.327225527361e+00       1.777787561800e+01 
       1.668346862746e+00       1.028160215879e+01 
       2.100278141174e+00       5.871035246117e+00 
       2.644093360171e+00       3.324624757936e+00 
       3.328716322194e+00       1.868562654881e+00 
       4.190605566664e+00       1.043062976920e+00 
       5.275659838680e+00       5.786492865098e-01 
       6.641662234896e+00       3.191945157257e-01 
       8.361357364064e+00       1.751601210451e-01 
       1.052632526271e+01       9.566091418851e-02 
