# Matter power spectrum P(k) at redshift z=2
# for k=2.09814e-07 to 10.5263 h/Mpc,
# number of wavenumbers equal to 139
#    1:k (h/Mpc)              2:P (Mpc/h)^3        
       2.098140192535e-07       1.615452769256e-01 
       2.641402005889e-07       2.017735638294e-01 
       3.325328107978e-07       2.520195688834e-01 
       4.186340057686e-07       3.147779216970e-01 
       5.270289881033e-07       3.931644688521e-01 
       6.634901858755e-07       4.910709700493e-01 
       8.352846554746e-07       6.133583176182e-01 
       1.051561078859e-06       7.660978709384e-01 
       1.323836964229e-06       9.568728882882e-01 
       1.666611995340e-06       1.195155021315e+00 
       2.098140192535e-06       1.492774562870e+00 
       2.641402005889e-06       1.864507794146e+00 
       3.325328107978e-06       2.328810587306e+00 
       4.186340057686e-06       2.908734683264e+00 
       5.270289881033e-06       3.633072113715e+00 
       6.634901858755e-06       4.537784569792e+00 
       8.352846554746e-06       5.667788626245e+00 
       1.051561078859e-05       7.079185343374e+00 
       1.323836964229e-05       8.842044749673e+00 
       1.666611995340e-05       1.104388302928e+01 
       2.098140192535e-05       1.379400424996e+01 
       2.641402005889e-05       1.722892057907e+01 
       3.325328107978e-05       2.151911693790e+01 
       4.186340057686e-05       2.687748967151e+01 
       5.270289881033e-05       3.356986582291e+01 
       6.634901858755e-05       4.192810081295e+01 
       8.352846554746e-05       5.236635657928e+01 
       1.051561078859e-04       6.540127348634e+01 
       1.323836964229e-04       8.167685145021e+01 
       1.666611995340e-04       1.019949129552e+02 
       2.098140192535e-04       1.273519597877e+02 
       2.641402005889e-04       1.589829191808e+02 
       3.325328107978e-04       1.984114687009e+02 
       4.186340057686e-04       2.475049868088e+02 
       5.270289881033e-04       3.085293422417e+02 
       6.634901858755e-04       3.841947439405e+02 
       8.352846554746e-04       4.776799334006e+02 
       1.051561078859e-03       5.926203239482e+02 
       1.323836964229e-03       7.330429760433e+02 
       1.666611995340e-03       9.032038530849e+02 
       2.098140192535e-03       1.107215603896e+03 
       2.641402005889e-03       1.348372442859e+03 
       3.325328107978e-03       1.628207640707e+03 
       4.186340057686e-03       1.945204830491e+03 
       5.270289881033e-03       2.293052904327e+03 
       6.634901858755e-03       2.658568971093e+03 
       8.352846554746e-03       3.019457615861e+03 
       1.051561078859e-02       3.342118477587e+03 
       1.323836964229e-02       3.580499208726e+03 
       1.666611995337e-02       3.678454451463e+03 
       2.098140171937e-02       3.581157335374e+03 
       2.641387140479e-02       3.263369702610e+03 
       3.323357968019e-02       2.774348907593e+03 
       4.123299361229e-02       2.283573689349e+03 
       4.790632219269e-02       2.000303682214e+03 
       5.275920367973e-02       1.856371929409e+03 
       5.677246018531e-02       1.763517302277e+03 
       6.036109956609e-02       1.691561159128e+03 
       6.371102674430e-02       1.627821675666e+03 
       6.692101071878e-02       1.565942731909e+03 
       7.005043409568e-02       1.502582360765e+03 
       7.313838240686e-02       1.436189959874e+03 
       7.621244612034e-02       1.366452417320e+03 
       7.929323714499e-02       1.293972157157e+03 
       8.239690320693e-02       1.220018504318e+03 
       8.553661991220e-02       1.146293980365e+03 
       8.872352263282e-02       1.074699536379e+03 
       9.196731331326e-02       1.007104713150e+03 
       9.527666941147e-02       9.451367600499e+02 
       9.865952743487e-02       8.900045009439e+02 
       1.021232841748e-01       8.423681969830e+02 
       1.056749422534e-01       8.022601181211e+02 
       1.093212169616e-01       7.690574439730e+02 
       1.130686155477e-01       7.415117664186e+02 
       1.169234964907e-01       7.178453626614e+02 
       1.208921139910e-01       6.959312834303e+02 
       1.249806514135e-01       6.735679157127e+02 
       1.291952464314e-01       6.488344614055e+02 
       1.335420099682e-01       6.204706710747e+02 
       1.380270405956e-01       5.881824611714e+02 
       1.426564357595e-01       5.527594384160e+02 
       1.474363010126e-01       5.159271156973e+02 
       1.523727583097e-01       4.799404268640e+02 
       1.574719543447e-01       4.470219541463e+02 
       1.627400698563e-01       4.188041263895e+02 
       1.681833308004e-01       3.959231019471e+02 
       1.738080222677e-01       3.778555707000e+02 
       1.796205060114e-01       3.630390356379e+02 
       1.856272424417e-01       3.492884734887e+02 
       1.918348179389e-01       3.344677840433e+02 
       1.982499783411e-01       3.172450640065e+02 
       2.048796694758e-01       2.976142518330e+02 
       2.117310856382e-01       2.768723523285e+02 
       2.188117269762e-01       2.569952110191e+02 
       2.261294668449e-01       2.397077387702e+02 
       2.336926303379e-01       2.257134107694e+02 
       2.415100854242e-01       2.144331226581e+02 
       2.495913484286e-01       2.043598177780e+02 
       2.579467060120e-01       1.938917613745e+02 
       2.665873563799e-01       1.822396209969e+02 
       2.755255732043e-01       1.698325663540e+02 
       2.847748967482e-01       1.578968857332e+02 
       2.943503580080e-01       1.475080839574e+02 
       3.042687434488e-01       1.388371506547e+02 
       3.145489102466e-01       1.311307356326e+02 
       3.252121650992e-01       1.234071038839e+02 
       3.362827239310e-01       1.152913557627e+02 
       3.477882756744e-01       1.072352180613e+02 
       3.597606814539e-01       9.992190055615e+01 
       3.722368519986e-01       9.351607581093e+01 
       3.852598625897e-01       8.756814847654e+01 
       3.988803888968e-01       8.162249626367e+01 
       4.131585827853e-01       7.574382369456e+01 
       4.281665613542e-01       7.028596506928e+01 
       4.439917664577e-01       6.530390861256e+01 
       4.607415854189e-01       6.052323760248e+01 
       4.785498415047e-01       5.583808398227e+01 
       4.975861293656e-01       5.140643371969e+01 
       5.180696089577e-01       4.723586461047e+01 
       5.402900263025e-01       4.318493916069e+01 
       5.646409116525e-01       3.927723390044e+01 
       5.916742382783e-01       3.552024940551e+01 
       6.221949245829e-01       3.183885993160e+01 
       6.574339212312e-01       2.823016575794e+01 
       6.993874264609e-01       2.463462066326e+01 
       7.515348877528e-01       2.100260425612e+01 
       8.204808261238e-01       1.725631767483e+01 
       9.198309510026e-01       1.332337895739e+01 
       1.077254073874e+00       9.273729313829e+00 
       1.327225527361e+00       5.700254881031e+00 
       1.668346862746e+00       3.311634603036e+00 
       2.100278141174e+00       1.899662716648e+00 
       2.644093360171e+00       1.080649989732e+00 
       3.328716322194e+00       6.101421768975e-01 
       4.190605566664e+00       3.421491298606e-01 
       5.275659838680e+00       1.906789481986e-01 
       6.641662234896e+00       1.056638859641e-01 
       8.361357364064e+00       5.824953548725e-02 
       1.052632526271e+01       3.195813189458e-02 
