# Matter power spectrum P(k) at redshift z=1.5
# for k=2.09814e-07 to 10.5263 h/Mpc,
# number of wavenumbers equal to 139
#    1:k (h/Mpc)              2:P (Mpc/h)^3        
       2.098140192535e-07       4.234586183030e-01 
       2.641402005889e-07       5.257762636239e-01 
       3.325328107978e-07       6.528162784846e-01 
       4.186340057686e-07       8.105521735209e-01 
       5.270289881033e-07       1.006400801036e+00 
       6.634901858755e-07       1.249571099838e+00 
       8.352846554746e-07       1.551497106125e+00 
       1.051561078859e-06       1.926375588311e+00 
       1.323836964229e-06       2.391833586708e+00 
       1.666611995340e-06       2.969757245211e+00 
       2.098140192535e-06       3.687320903929e+00 
       2.641402005889e-06       4.578264838201e+00 
       3.325328107978e-06       5.684481713914e+00 
       4.186340057686e-06       7.057986345733e+00 
       5.270289881033e-06       8.763361330447e+00 
       6.634901858755e-06       1.088079350348e+01 
       8.352846554746e-06       1.350984386193e+01 
       1.051561078859e-05       1.677412795984e+01 
       1.323836964229e-05       2.082712638416e+01 
       1.666611995340e-05       2.585939754428e+01 
       2.098140192535e-05       3.210753004868e+01 
       2.641402005889e-05       3.986525188078e+01 
       3.325328107978e-05       4.949721144496e+01 
       4.186340057686e-05       6.145606408775e+01 
       5.270289881033e-05       7.630363929392e+01 
       6.634901858755e-05       9.473712844569e+01 
       8.352846554746e-05       1.176214159932e+02 
       1.051561078859e-04       1.460288622668e+02 
       1.323836964229e-04       1.812879959796e+02 
       1.666611995340e-04       2.250426087456e+02 
       2.098140192535e-04       2.793225057241e+02 
       2.641402005889e-04       3.466263728524e+02 
       3.325328107978e-04       4.300154129261e+02 
       4.186340057686e-04       5.332129682174e+02 
       5.270289881033e-04       6.606998268773e+02 
       6.634901858755e-04       8.177878882769e+02 
       8.352846554746e-04       1.010649095830e+03 
       1.051561078859e-03       1.246274110870e+03 
       1.323836964229e-03       1.532320422042e+03 
       1.666611995340e-03       1.876734551026e+03 
       2.098140192535e-03       2.286935594336e+03 
       2.641402005889e-03       2.768476904298e+03 
       3.325328107978e-03       3.323180888365e+03 
       4.186340057686e-03       3.946617756552e+03 
       5.270289881033e-03       4.624778121819e+03 
       6.634901858755e-03       5.330192390285e+03 
       8.352846554746e-03       6.017868482981e+03 
       1.051561078859e-02       6.621476308568e+03 
       1.323836964229e-02       7.051736536334e+03 
       1.666611995337e-02       7.201742067405e+03 
       2.098140171937e-02       6.969720763700e+03 
       2.641387140479e-02       6.313616286009e+03 
       3.323357968019e-02       5.335799170117e+03 
       4.123299361229e-02       4.367538698657e+03 
       4.790632219269e-02       3.810981254265e+03 
       5.275920367973e-02       3.527968487339e+03 
       5.677246018531e-02       3.345168219075e+03 
       6.036109956609e-02       3.203606401825e+03 
       6.371102674430e-02       3.078598599358e+03 
       6.692101071878e-02       2.957817219535e+03 
       7.005043409568e-02       2.834794976053e+03 
       7.313838240686e-02       2.706524118994e+03 
       7.621244612034e-02       2.572368651354e+03 
       7.929323714499e-02       2.433434148318e+03 
       8.239690320693e-02       2.292085814411e+03 
       8.553661991220e-02       2.151500434085e+03 
       8.872352263282e-02       2.015220669863e+03 
       9.196731331326e-02       1.886721636697e+03 
       9.527666941147e-02       1.769015925561e+03 
       9.865952743487e-02       1.664325845169e+03 
       1.021232841748e-01       1.573843286050e+03 
       1.056749422534e-01       1.497585631347e+03 
       1.093212169616e-01       1.434350029760e+03 
       1.130686155477e-01       1.381773198093e+03 
       1.169234964907e-01       1.336515432586e+03 
       1.208921139910e-01       1.294599499752e+03 
       1.249806514135e-01       1.251923511055e+03 
       1.291952464314e-01       1.204921339097e+03 
       1.335420099682e-01       1.151264898513e+03 
       1.380270405956e-01       1.090425345120e+03 
       1.426564357595e-01       1.023883139292e+03 
       1.474363010126e-01       9.548459256894e+02 
       1.523727583097e-01       8.874895779788e+02 
       1.574719543447e-01       8.259161245565e+02 
       1.627400698563e-01       7.731243101126e+02 
       1.681833308004e-01       7.302651591566e+02 
       1.738080222677e-01       6.963490112174e+02 
       1.796205060114e-01       6.684760930000e+02 
       1.856272424417e-01       6.426111207976e+02 
       1.918348179389e-01       6.148224331826e+02 
       1.982499783411e-01       5.826687295046e+02 
       2.048796694758e-01       5.461500671281e+02 
       2.117310856382e-01       5.076557207937e+02 
       2.188117269762e-01       4.708105057863e+02 
       2.261294668449e-01       4.387676224065e+02 
       2.336926303379e-01       4.128014892627e+02 
       2.415100854242e-01       3.918384717159e+02 
       2.495913484286e-01       3.731143229336e+02 
       2.579467060120e-01       3.537014331566e+02 
       2.665873563799e-01       3.321628655785e+02 
       2.755255732043e-01       3.092856208335e+02 
       2.847748967482e-01       2.873044504880e+02 
       2.943503580080e-01       2.681723798830e+02 
       3.042687434488e-01       2.521927421687e+02 
       3.145489102466e-01       2.379901999958e+02 
       3.252121650992e-01       2.237799585945e+02 
       3.362827239310e-01       2.088828096248e+02 
       3.477882756744e-01       1.941182841350e+02 
       3.597606814539e-01       1.807217662648e+02 
       3.722368519986e-01       1.689872987537e+02 
       3.852598625897e-01       1.580988265435e+02 
       3.988803888968e-01       1.472322868850e+02 
       4.131585827853e-01       1.365043017790e+02 
       4.281665613542e-01       1.265516838881e+02 
       4.439917664577e-01       1.174713142151e+02 
       4.607415854189e-01       1.087676820918e+02 
       4.785498415047e-01       1.002497526329e+02 
       4.975861293656e-01       9.220048227238e+01 
       5.180696089577e-01       8.463218888451e+01 
       5.402900263025e-01       7.729038184065e+01 
       5.646409116525e-01       7.021664627849e+01 
       5.916742382783e-01       6.342364325378e+01 
       6.221949245829e-01       5.677656507242e+01 
       6.574339212312e-01       5.026986853268e+01 
       6.993874264609e-01       4.379727203886e+01 
       7.515348877528e-01       3.727078646558e+01 
       8.204808261238e-01       3.055343542430e+01 
       9.198309510026e-01       2.352044796150e+01 
       1.077254073874e+00       1.630479936528e+01 
       1.327225527361e+00       9.968208395993e+00 
       1.668346862746e+00       5.757078568396e+00 
       2.100278141174e+00       3.282890294922e+00 
       2.644093360171e+00       1.856456320459e+00 
       3.328716322194e+00       1.041958515134e+00 
       4.190605566664e+00       5.808370942832e-01 
       5.275659838680e+00       3.217813712088e-01 
       6.641662234896e+00       1.772570563996e-01 
       8.361357364064e+00       9.713763506438e-02 
       1.052632526271e+01       5.297774133469e-02 
