# Matter power spectrum P(k) at redshift z=1
# for k=2.09814e-07 to 10.5263 h/Mpc,
# number of wavenumbers equal to 139
#    1:k (h/Mpc)              2:P (Mpc/h)^3        
       2.098140192535e-07       3.651283057589e-01 
       2.641402005889e-07       4.561792235522e-01 
       3.325328107978e-07       5.699352272731e-01 
       4.186340057686e-07       7.120582138693e-01 
       5.270289881033e-07       8.896219698438e-01 
       6.634901858755e-07       1.111464249284e+00 
       8.352846554746e-07       1.388626648957e+00 
       1.051561078859e-06       1.734904172530e+00 
       1.323836964229e-06       2.167531837253e+00 
       1.666611995340e-06       2.708042496041e+00 
       2.098140192535e-06       3.383338567915e+00 
       2.641402005889e-06       4.227031015566e+00 
       3.325328107978e-06       5.281112204421e+00 
       4.186340057686e-06       6.598045892329e+00 
       5.270289881033e-06       8.243378331589e+00 
       6.634901858755e-06       1.029900038719e+01 
       8.352846554746e-06       1.286722289936e+01 
       1.051561078859e-05       1.607586786464e+01 
       1.323836964229e-05       2.008462833341e+01 
       1.666611995340e-05       2.509301254167e+01 
       2.098140192535e-05       3.135026566736e+01 
       2.641402005889e-05       3.916775904164e+01 
       3.325328107978e-05       4.893445557710e+01 
       4.186340057686e-05       6.113620554856e+01 
       5.270289881033e-05       7.637980229518e+01 
       6.634901858755e-05       9.542293429229e+01 
       8.352846554746e-05       1.192114045100e+02 
       1.051561078859e-04       1.489252341704e+02 
       1.323836964229e-04       1.860354855325e+02 
       1.666611995340e-04       2.323737397762e+02 
       2.098140192535e-04       2.902159789589e+02 
       2.641402005889e-04       3.623818360814e+02 
       3.325328107978e-04       4.523483054171e+02 
       4.186340057686e-04       5.643734382933e+02 
       5.270289881033e-04       7.036199517629e+02 
       6.634901858755e-04       8.762618984714e+02 
       8.352846554746e-04       1.089551937789e+03 
       1.051561078859e-03       1.351820006088e+03 
       1.323836964229e-03       1.672340587480e+03 
       1.666611995340e-03       2.060912359413e+03 
       2.098140192535e-03       2.526954992035e+03 
       2.641402005889e-03       3.078053050438e+03 
       3.325328107978e-03       3.717778841376e+03 
       4.186340057686e-03       4.442741357085e+03 
       5.270289881033e-03       5.238591754918e+03 
       6.634901858755e-03       6.075262442700e+03 
       8.352846554746e-03       6.901824231498e+03 
       1.051561078859e-02       7.641443783885e+03 
       1.323836964229e-02       8.188724864694e+03 
       1.666611995337e-02       8.415065759139e+03 
       2.098140171937e-02       8.194739785228e+03 
       2.641387140479e-02       7.469607833124e+03 
       3.323357968019e-02       6.352024161771e+03 
       4.123299361229e-02       5.229719792463e+03 
       4.790632219269e-02       4.581813840619e+03 
       5.275920367973e-02       4.252621787460e+03 
       5.677246018531e-02       4.040263446431e+03 
       6.036109956609e-02       3.875695012726e+03 
       6.371102674430e-02       3.729897146438e+03 
       6.692101071878e-02       3.588322838135e+03 
       7.005043409568e-02       3.443322768021e+03 
       7.313838240686e-02       3.291348063453e+03 
       7.621244612034e-02       3.131683700050e+03 
       7.929323714499e-02       2.965711870206e+03 
       8.239690320693e-02       2.796343035965e+03 
       8.553661991220e-02       2.627480604211e+03 
       8.872352263282e-02       2.463483336020e+03 
       9.196731331326e-02       2.308638350171e+03 
       9.527666941147e-02       2.166677871807e+03 
       9.865952743487e-02       2.040375402263e+03 
       1.021232841748e-01       1.931247006990e+03 
       1.056749422534e-01       1.839369054873e+03 
       1.093212169616e-01       1.763315947304e+03 
       1.130686155477e-01       1.700227239816e+03 
       1.169234964907e-01       1.646028296987e+03 
       1.208921139910e-01       1.595842950206e+03 
       1.249806514135e-01       1.544623090950e+03 
       1.291952464314e-01       1.487963660702e+03 
       1.335420099682e-01       1.422973851237e+03 
       1.380270405956e-01       1.348978223949e+03 
       1.426564357595e-01       1.267786802090e+03 
       1.474363010126e-01       1.183356458401e+03 
       1.523727583097e-01       1.100859068683e+03 
       1.574719543447e-01       1.025393110497e+03 
       1.627400698563e-01       9.607041000771e+02 
       1.681833308004e-01       9.082526748346e+02 
       1.738080222677e-01       8.668397362741e+02 
       1.796205060114e-01       8.328819582106e+02 
       1.856272424417e-01       8.013671377107e+02 
       1.918348179389e-01       7.673945536898e+02 
       1.982499783411e-01       7.279078952960e+02 
       2.048796694758e-01       6.828926292922e+02 
       2.117310856382e-01       6.353242519067e+02 
       2.188117269762e-01       5.897365087592e+02 
       2.261294668449e-01       5.500880064138e+02 
       2.336926303379e-01       5.179938839103e+02 
       2.415100854242e-01       4.921259742859e+02 
       2.495913484286e-01       4.690261757214e+02 
       2.579467060120e-01       4.450185278628e+02 
       2.665873563799e-01       4.182911810896e+02 
       2.755255732043e-01       3.898289269824e+02 
       2.847748967482e-01       3.624464577131e+02 
       2.943503580080e-01       3.386127816002e+02 
       3.042687434488e-01       3.187208614570e+02 
       3.145489102466e-01       3.010416693169e+02 
       3.252121650992e-01       2.833215772297e+02 
       3.362827239310e-01       2.646998418244e+02 
       3.477882756744e-01       2.462135238851e+02 
       3.597606814539e-01       2.294313649683e+02 
       3.722368519986e-01       2.147316902048e+02 
       3.852598625897e-01       2.010823498294e+02 
       3.988803888968e-01       1.874371894440e+02 
       4.131585827853e-01       1.739447971638e+02 
       4.281665613542e-01       1.614177999635e+02 
       4.439917664577e-01       1.499826080014e+02 
       4.607415854189e-01       1.390090812434e+02 
       4.785498415047e-01       1.282541103780e+02 
       4.975861293656e-01       1.180806079833e+02 
       5.180696089577e-01       1.085060606506e+02 
       5.402900263025e-01       9.920563077198e+01 
       5.646409116525e-01       9.023351511573e+01 
       5.916742382783e-01       8.160698915158e+01 
       6.221949245829e-01       7.315349227210e+01 
       6.574339212312e-01       6.486638380201e+01 
       6.993874264609e-01       5.660885470202e+01 
       7.515348877528e-01       4.826686641081e+01 
       8.204808261238e-01       3.966156151735e+01 
       9.198309510026e-01       3.062637552357e+01 
       1.077254073874e+00       2.132150820263e+01 
       1.327225527361e+00       1.310890575754e+01 
       1.668346862746e+00       7.617871300122e+00 
       2.100278141174e+00       4.371066941138e+00 
       2.644093360171e+00       2.487228105510e+00 
       3.328716322194e+00       1.404691593705e+00 
       4.190605566664e+00       7.879240974224e-01 
       5.275659838680e+00       4.392281026623e-01 
       6.641662234896e+00       2.434621528417e-01 
       8.361357364064e+00       1.342497225360e-01 
       1.052632526271e+01       7.367430582691e-02 
