# Matter power spectrum P(k) at redshift z=1.5
# for k=2.09814e-07 to 10.5263 h/Mpc,
# number of wavenumbers equal to 139
#    1:k (h/Mpc)              2:P (Mpc/h)^3        
       2.098140192535e-07       2.533011933888e-01 
       2.641402005889e-07       3.151136640565e-01 
       3.325328107978e-07       3.920100806146e-01 
       4.186340057686e-07       4.876713413733e-01 
       5.270289881033e-07       6.066765851480e-01 
       6.634901858755e-07       7.547223862442e-01 
       8.352846554746e-07       9.388954396739e-01 
       1.051561078859e-06       1.168011788013e+00 
       1.323836964229e-06       1.453038828667e+00 
       1.666611995340e-06       1.807620301662e+00 
       2.098140192535e-06       2.248729386192e+00 
       2.641402005889e-06       2.797481166519e+00 
       3.325328107978e-06       3.480143352206e+00 
       4.186340057686e-06       4.329393628067e+00 
       5.270289881033e-06       5.385883791780e+00 
       6.634901858755e-06       6.700185521964e+00 
       8.352846554746e-06       8.335210834358e+00 
       1.051561078859e-05       1.036922292721e+01 
       1.323836964229e-05       1.289958124668e+01 
       1.666611995340e-05       1.604739942660e+01 
       2.098140192535e-05       1.996333788797e+01 
       2.641402005889e-05       2.483480602385e+01 
       3.325328107978e-05       3.089491411703e+01 
       4.186340057686e-05       3.843359438995e+01 
       5.270289881033e-05       4.781140562375e+01 
       6.634901858755e-05       5.947664691966e+01 
       8.352846554746e-05       7.398653067384e+01 
       1.051561078859e-04       9.203329294772e+01 
       1.323836964229e-04       1.144762272031e+02 
       1.666611995340e-04       1.423806638173e+02 
       2.098140192535e-04       1.770647820148e+02 
       2.641402005889e-04       2.201546497908e+02 
       3.325328107978e-04       2.736467420474e+02 
       4.186340057686e-04       3.399749848349e+02 
       5.270289881033e-04       4.220758004716e+02 
       6.634901858755e-04       5.234400321805e+02 
       8.352846554746e-04       6.481367567005e+02 
       1.051561078859e-03       8.007921979467e+02 
       1.323836964229e-03       9.864971830726e+02 
       1.666611995340e-03       1.210567776015e+03 
       2.098140192535e-03       1.478019601691e+03 
       2.641402005889e-03       1.792698126393e+03 
       3.325328107978e-03       2.156057015738e+03 
       4.186340057686e-03       2.565495902178e+03 
       5.270289881033e-03       3.010184391672e+03 
       6.634901858755e-03       3.475486152777e+03 
       8.352846554746e-03       3.930704582127e+03 
       1.051561078859e-02       4.332314427054e+03 
       1.323836964229e-02       4.621468858540e+03 
       1.666611995337e-02       4.727422288012e+03 
       2.098140171937e-02       4.582494498802e+03 
       2.641387140479e-02       4.158137285663e+03 
       3.323357968019e-02       3.521048297945e+03 
       4.123299361229e-02       2.888902047959e+03 
       4.790632219269e-02       2.525786233127e+03 
       5.275920367973e-02       2.341444616631e+03 
       5.677246018531e-02       2.222521292457e+03 
       6.036109956609e-02       2.130451767011e+03 
       6.371102674430e-02       2.049096834954e+03 
       6.692101071878e-02       1.970401074235e+03 
       7.005043409568e-02       1.890145053130e+03 
       7.313838240686e-02       1.806375173030e+03 
       7.621244612034e-02       1.718691559296e+03 
       7.929323714499e-02       1.627834810280e+03 
       8.239690320693e-02       1.535369470333e+03 
       8.553661991220e-02       1.443389622563e+03 
       8.872352263282e-02       1.354226123433e+03 
       9.196731331326e-02       1.270162100753e+03 
       9.527666941147e-02       1.193173927864e+03 
       9.865952743487e-02       1.124716562198e+03 
       1.021232841748e-01       1.065566649239e+03 
       1.056749422534e-01       1.015728946798e+03 
       1.093212169616e-01       9.744076128762e+02 
       1.130686155477e-01       9.400470206791e+02 
       1.169234964907e-01       9.104541652628e+02 
       1.208921139910e-01       8.830223666968e+02 
       1.249806514135e-01       8.550681972276e+02 
       1.291952464314e-01       8.242637137077e+02 
       1.335420099682e-01       7.890945048869e+02 
       1.380270405956e-01       7.492240736468e+02 
       1.426564357595e-01       7.056279477585e+02 
       1.474363010126e-01       6.604063776921e+02 
       1.523727583097e-01       6.162866532044e+02 
       1.574719543447e-01       5.759422347787e+02 
       1.627400698563e-01       5.413220269782e+02 
       1.681833308004e-01       5.131673793645e+02 
       1.738080222677e-01       4.908248673977e+02 
       1.796205060114e-01       4.724007500065e+02 
       1.856272424417e-01       4.552686503407e+02 
       1.918348179389e-01       4.368766441144e+02 
       1.982499783411e-01       4.156464899130e+02 
       2.048796694758e-01       3.915865973763e+02 
       2.117310856382e-01       3.662526164199e+02 
       2.188117269762e-01       3.419949632818e+02 
       2.261294668449e-01       3.208515484644e+02 
       2.336926303379e-01       3.036397238860e+02 
       2.415100854242e-01       2.896585597976e+02 
       2.495913484286e-01       2.771194499074e+02 
       2.579467060120e-01       2.641347482883e+02 
       2.665873563799e-01       2.497828130559e+02 
       2.755255732043e-01       2.345752536434e+02 
       2.847748967482e-01       2.199513887823e+02 
       2.943503580080e-01       2.071635727306e+02 
       3.042687434488e-01       1.964015359277e+02 
       3.145489102466e-01       1.867798153458e+02 
       3.252121650992e-01       1.771550758734e+02 
       3.362827239310e-01       1.670949530151e+02 
       3.477882756744e-01       1.571246319876e+02 
       3.597606814539e-01       1.480310923386e+02 
       3.722368519986e-01       1.399983706622e+02 
       3.852598625897e-01       1.325047135829e+02 
       3.988803888968e-01       1.250261211409e+02 
       4.131585827853e-01       1.176366470200e+02 
       4.281665613542e-01       1.107379914801e+02 
       4.439917664577e-01       1.043883804680e+02 
       4.607415854189e-01       9.827262687569e+01 
       4.785498415047e-01       9.226852172849e+01 
       4.975861293656e-01       8.655087533728e+01 
       5.180696089577e-01       8.112299162221e+01 
       5.402900263025e-01       7.582079212964e+01 
       5.646409116525e-01       7.066392928121e+01 
       5.916742382783e-01       6.565135797450e+01 
       6.221949245829e-01       6.068732341326e+01 
       6.574339212312e-01       5.575049275229e+01 
       6.993874264609e-01       5.074799508581e+01 
       7.515348877528e-01       4.558126324647e+01 
       8.204808261238e-01       4.009032810216e+01 
       9.198309510026e-01       3.406727595563e+01 
       1.077254073874e+00       2.741062278860e+01 
       1.327225527361e+00       2.080035967217e+01 
       1.668346862746e+00       1.551876987517e+01 
       2.100278141174e+00       1.159064293684e+01 
       2.644093360171e+00       8.616095112889e+00 
       3.328716322194e+00       6.329246327818e+00 
       4.190605566664e+00       4.566267825983e+00 
       5.275659838680e+00       3.220107269095e+00 
       6.641662234896e+00       2.212370216173e+00 
       8.361357364064e+00       1.478167964367e+00 
       1.052632526271e+01       9.601473714617e-01 
