# Matter power spectrum P(k) at redshift z=2.5
# for k=2.09814e-07 to 10.5263 h/Mpc,
# number of wavenumbers equal to 139
#    1:k (h/Mpc)              2:P (Mpc/h)^3        
       2.098140192535e-07       1.318797025380e-01 
       2.641402005889e-07       1.651535671755e-01 
       3.325328107978e-07       2.068225831263e-01 
       4.186340057686e-07       2.590048862327e-01 
       5.270289881033e-07       3.243530278797e-01 
       6.634901858755e-07       4.061888101060e-01 
       8.352846554746e-07       5.086721410649e-01 
       1.051561078859e-06       6.370124924478e-01 
       1.323836964229e-06       7.977337086355e-01 
       1.666611995340e-06       9.990056281646e-01 
       2.098140192535e-06       1.251059373069e+00 
       2.641402005889e-06       1.566707415600e+00 
       3.325328107978e-06       1.961994854320e+00 
       4.186340057686e-06       2.457015005106e+00 
       5.270289881033e-06       3.076930743315e+00 
       6.634901858755e-06       3.853253504815e+00 
       8.352846554746e-06       4.825444911667e+00 
       1.051561078859e-05       6.042922341346e+00 
       1.323836964229e-05       7.567570230882e+00 
       1.666611995340e-05       9.476884413384e+00 
       2.098140192535e-05       1.186790864977e+01 
       2.641402005889e-05       1.486216209317e+01 
       3.325328107978e-05       1.861180549450e+01 
       4.186340057686e-05       2.330735425713e+01 
       5.270289881033e-05       2.918731987463e+01 
       6.634901858755e-05       3.655024894945e+01 
       8.352846554746e-05       4.576973044335e+01 
       1.051561078859e-04       5.731305245438e+01 
       1.323836964229e-04       7.176429630054e+01 
       1.666611995340e-04       8.985272746182e+01 
       2.098140192535e-04       1.124873157277e+02 
       2.641402005889e-04       1.407979674173e+02 
       3.325328107978e-04       1.761833625836e+02 
       4.186340057686e-04       2.203638194007e+02 
       5.270289881033e-04       2.754349523876e+02 
       6.634901858755e-04       3.439138987023e+02 
       8.352846554746e-04       4.287654531290e+02 
       1.051561078859e-03       5.333930921106e+02 
       1.323836964229e-03       6.615797000631e+02 
       1.666611995340e-03       8.173470719492e+02 
       2.098140192535e-03       1.004639630487e+03 
       2.641402005889e-03       1.226706622091e+03 
       3.325328107978e-03       1.485212713804e+03 
       4.186340057686e-03       1.779055773941e+03 
       5.270289881033e-03       2.101633882470e+03 
       6.634901858755e-03       2.442739261835e+03 
       8.352846554746e-03       2.781188074894e+03 
       1.051561078859e-02       3.085882195274e+03 
       1.323836964229e-02       3.313896894440e+03 
       1.666611995337e-02       3.412558450183e+03 
       2.098140171937e-02       3.329997215657e+03 
       2.641387140479e-02       3.041577098005e+03 
       3.323357968019e-02       2.592150030534e+03 
       4.123299361229e-02       2.139145295587e+03 
       4.790632219269e-02       1.877561902759e+03 
       5.275920367973e-02       1.744824023164e+03 
       5.677246018531e-02       1.659288009054e+03 
       6.036109956609e-02       1.593011308947e+03 
       6.371102674430e-02       1.534244312618e+03 
       6.692101071878e-02       1.477096974344e+03 
       7.005043409568e-02       1.418474925678e+03 
       7.313838240686e-02       1.356948063770e+03 
       7.621244612034e-02       1.292237533149e+03 
       7.929323714499e-02       1.224916982576e+03 
       8.239690320693e-02       1.156181158124e+03 
       8.553661991220e-02       1.087628020644e+03 
       8.872352263282e-02       1.021039505836e+03 
       9.196731331326e-02       9.581669198038e+02 
       9.527666941147e-02       9.005338450072e+02 
       9.865952743487e-02       8.492715186959e+02 
       1.021232841748e-01       8.049972948578e+02 
       1.056749422534e-01       7.677405272268e+02 
       1.093212169616e-01       7.369175454142e+02 
       1.130686155477e-01       7.113599053027e+02 
       1.169234964907e-01       6.894051404690e+02 
       1.208921139910e-01       6.690659528559e+02 
       1.249806514135e-01       6.482873313023e+02 
       1.291952464314e-01       6.252787058041e+02 
       1.335420099682e-01       5.988677907729e+02 
       1.380270405956e-01       5.687846074877e+02 
       1.426564357595e-01       5.357696115252e+02 
       1.474363010126e-01       5.014345968812e+02 
       1.523727583097e-01       4.678828226232e+02 
       1.574719543447e-01       4.371850654803e+02 
       1.627400698563e-01       4.108600073971e+02 
       1.681833308004e-01       3.894966502266e+02 
       1.738080222677e-01       3.726037887335e+02 
       1.796205060114e-01       3.587240501200e+02 
       1.856272424417e-01       3.458237400675e+02 
       1.918348179389e-01       3.319183506772e+02 
       1.982499783411e-01       3.157738992114e+02 
       2.048796694758e-01       2.973892355052e+02 
       2.117310856382e-01       2.779720443644e+02 
       2.188117269762e-01       2.593571686695e+02 
       2.261294668449e-01       2.431432329680e+02 
       2.336926303379e-01       2.299792368943e+02 
       2.415100854242e-01       2.193252118522e+02 
       2.495913484286e-01       2.097837787290e+02 
       2.579467060120e-01       1.998732709462e+02 
       2.665873563799e-01       1.888661881177e+02 
       2.755255732043e-01       1.771619244400e+02 
       2.847748967482e-01       1.658943327757e+02 
       2.943503580080e-01       1.560550531238e+02 
       3.042687434488e-01       1.477994195996e+02 
       3.145489102466e-01       1.404312632247e+02 
       3.252121650992e-01       1.330463122127e+02 
       3.362827239310e-01       1.253007556458e+02 
       3.477882756744e-01       1.176109566303e+02 
       3.597606814539e-01       1.106041253969e+02 
       3.722368519986e-01       1.044298072521e+02 
       3.852598625897e-01       9.867442089430e+01 
       3.988803888968e-01       9.292032409478e+01 
       4.131585827853e-01       8.722683960852e+01 
       4.281665613542e-01       8.191671851795e+01 
       4.439917664577e-01       7.703863859449e+01 
       4.607415854189e-01       7.234096594594e+01 
       4.785498415047e-01       6.772623987331e+01 
       4.975861293656e-01       6.333659296275e+01 
       5.180696089577e-01       5.917652994138e+01 
       5.402900263025e-01       5.511508037738e+01 
       5.646409116525e-01       5.117012738876e+01 
       5.916742382783e-01       4.734351783502e+01 
       6.221949245829e-01       4.356071469202e+01 
       6.574339212312e-01       3.980910740403e+01 
       6.993874264609e-01       3.601985211160e+01 
       7.515348877528e-01       3.212343575501e+01 
       8.204808261238e-01       2.800732695170e+01 
       9.198309510026e-01       2.353221682814e+01 
       1.077254073874e+00       1.865583147978e+01 
       1.327225527361e+00       1.392114834609e+01 
       1.668346862746e+00       1.025170825558e+01 
       2.100278141174e+00       7.609562627306e+00 
       2.644093360171e+00       5.663645289161e+00 
       3.328716322194e+00       4.195185491550e+00 
       4.190605566664e+00       3.070759565394e+00 
       5.275659838680e+00       2.207574038601e+00 
       6.641662234896e+00       1.551220567053e+00 
       8.361357364064e+00       1.061914083438e+00 
       1.052632526271e+01       7.069218788449e-01 
