# Matter power spectrum P(k) at redshift z=2.5
# for k=2.09814e-07 to 10.5263 h/Mpc,
# number of wavenumbers equal to 139
#    1:k (h/Mpc)              2:P (Mpc/h)^3        
       2.098140192535e-07       1.589327421315e-01 
       2.641402005889e-07       1.974437432981e-01 
       3.325328107978e-07       2.452863471081e-01 
       4.186340057686e-07       3.047216946622e-01 
       5.270289881033e-07       3.785588242588e-01 
       6.634901858755e-07       4.702874319029e-01 
       8.352846554746e-07       5.842428019816e-01 
       1.051561078859e-06       7.258107010776e-01 
       1.323836964229e-06       9.016819196799e-01 
       1.666611995340e-06       1.120168491635e+00 
       2.098140192535e-06       1.391596534822e+00 
       2.641402005889e-06       1.728794278913e+00 
       3.325328107978e-06       2.147698340930e+00 
       4.186340057686e-06       2.668106902392e+00 
       5.270289881033e-06       3.314615361233e+00 
       6.634901858755e-06       4.117778670752e+00 
       8.352846554746e-06       5.115555250321e+00 
       1.051561078859e-05       6.355100614170e+00 
       1.323836964229e-05       7.894995335208e+00 
       1.666611995340e-05       9.808012288902e+00 
       2.098140192535e-05       1.218455330946e+01 
       2.641402005889e-05       1.513691636023e+01 
       3.325328107978e-05       1.880459233757e+01 
       4.186340057686e-05       2.336083676868e+01 
       5.270289881033e-05       2.902081704882e+01 
       6.634901858755e-05       3.605170070497e+01 
       8.352846554746e-05       4.478512310287e+01 
       1.051561078859e-04       5.563254871879e+01 
       1.323836964229e-04       6.910410526643e+01 
       1.666611995340e-04       8.583149601222e+01 
       2.098140192535e-04       1.065955245330e+02 
       2.641402005889e-04       1.323584897007e+02 
       3.325328107978e-04       1.643010398883e+02 
       4.186340057686e-04       2.038617315535e+02 
       5.270289881033e-04       2.527752033991e+02 
       6.634901858755e-04       3.131014977272e+02 
       8.352846554746e-04       3.872355345396e+02 
       1.051561078859e-03       4.778843459002e+02 
       1.323836964229e-03       5.880003552470e+02 
       1.666611995340e-03       7.206459143480e+02 
       2.098140192535e-03       8.787103131238e+02 
       2.641402005889e-03       1.064378583173e+03 
       3.325328107978e-03       1.278392093132e+03 
       4.186340057686e-03       1.519095164027e+03 
       5.270289881033e-03       1.781136386353e+03 
       6.634901858755e-03       2.053966076617e+03 
       8.352846554746e-03       2.320254988907e+03 
       1.051561078859e-02       2.554403721995e+03 
       1.323836964229e-02       2.721898140742e+03 
       1.666611995337e-02       2.781339794109e+03 
       2.098140171937e-02       2.693222989219e+03 
       2.641387140479e-02       2.441042866703e+03 
       3.323357968019e-02       2.064126346432e+03 
       4.123299361229e-02       1.690434943772e+03 
       4.790632219269e-02       1.475553393063e+03 
       5.275920367973e-02       1.366291666667e+03 
       5.677246018531e-02       1.295725838134e+03 
       6.036109956609e-02       1.241075532702e+03 
       6.371102674430e-02       1.192802220446e+03 
       6.692101071878e-02       1.146140756022e+03 
       7.005043409568e-02       1.098590700688e+03 
       7.313838240686e-02       1.048989482331e+03 
       7.621244612034e-02       9.970922908318e+02 
       7.929323714499e-02       9.433287315219e+02 
       8.239690320693e-02       8.886164794555e+02 
       8.553661991220e-02       8.341879678094e+02 
       8.872352263282e-02       7.814176658439e+02 
       9.196731331326e-02       7.316542142738e+02 
       9.527666941147e-02       6.860671877936e+02 
       9.865952743487e-02       6.455198911070e+02 
       1.021232841748e-01       6.104761757360e+02 
       1.056749422534e-01       5.809443600196e+02 
       1.093212169616e-01       5.564592616348e+02 
       1.130686155477e-01       5.361053231133e+02 
       1.169234964907e-01       5.185877717362e+02 
       1.208921139910e-01       5.023640161319e+02 
       1.249806514135e-01       4.858425445621e+02 
       1.291952464314e-01       4.676393092211e+02 
       1.335420099682e-01       4.468503163467e+02 
       1.380270405956e-01       4.232697053688e+02 
       1.426564357595e-01       3.974715310123e+02 
       1.474363010126e-01       3.707006022104e+02 
       1.523727583097e-01       3.445780319966e+02 
       1.574719543447e-01       3.206967689691e+02 
       1.627400698563e-01       3.002218297760e+02 
       1.681833308004e-01       2.836010315380e+02 
       1.738080222677e-01       2.704509321433e+02 
       1.796205060114e-01       2.596460261164e+02 
       1.856272424417e-01       2.496193913603e+02 
       1.918348179389e-01       2.388438543888e+02 
       1.982499783411e-01       2.263707817984e+02 
       2.048796694758e-01       2.121997824765e+02 
       2.117310856382e-01       1.972588577619e+02 
       2.188117269762e-01       1.829564243918e+02 
       2.261294668449e-01       1.705180619179e+02 
       2.336926303379e-01       1.604395217273e+02 
       2.415100854242e-01       1.523040571570e+02 
       2.495913484286e-01       1.450376054373e+02 
       2.579467060120e-01       1.375022603792e+02 
       2.665873563799e-01       1.291393046867e+02 
       2.755255732043e-01       1.202545368557e+02 
       2.847748967482e-01       1.117168065219e+02 
       2.943503580080e-01       1.042856813019e+02 
       3.042687434488e-01       9.807939102865e+01 
       3.145489102466e-01       9.256331158626e+01 
       3.252121650992e-01       8.704338002275e+01 
       3.362827239310e-01       8.125538431717e+01 
       3.477882756744e-01       7.551808367169e+01 
       3.597606814539e-01       7.031213030374e+01 
       3.722368519986e-01       6.575206440632e+01 
       3.852598625897e-01       6.152049538817e+01 
       3.988803888968e-01       5.729681068790e+01 
       4.131585827853e-01       5.312640005511e+01 
       4.281665613542e-01       4.925713752457e+01 
       4.439917664577e-01       4.572680931185e+01 
       4.607415854189e-01       4.234260236893e+01 
       4.785498415047e-01       3.903017588042e+01 
       4.975861293656e-01       3.589972003704e+01 
       5.180696089577e-01       3.295607556741e+01 
       5.402900263025e-01       3.010018366666e+01 
       5.646409116525e-01       2.734826176905e+01 
       5.916742382783e-01       2.470526862009e+01 
       6.221949245829e-01       2.211871738996e+01 
       6.574339212312e-01       1.958646236723e+01 
       6.993874264609e-01       1.706710261260e+01 
       7.515348877528e-01       1.452634189800e+01 
       8.204808261238e-01       1.191075401408e+01 
       9.198309510026e-01       9.171575686985e+00 
       1.077254073874e+00       6.360313652270e+00 
       1.327225527361e+00       3.890431479907e+00 
       1.668346862746e+00       2.248129794362e+00 
       2.100278141174e+00       1.282672547792e+00 
       2.644093360171e+00       7.257457917169e-01 
       3.328716322194e+00       4.075592844713e-01 
       4.190605566664e+00       2.273189355405e-01 
       5.275659838680e+00       1.260037879123e-01 
       6.641662234896e+00       6.944940194783e-02 
       8.361357364064e+00       3.807992695704e-02 
       1.052632526271e+01       2.078010492473e-02 
