# Matter power spectrum P(k) at redshift z=1.5
# for k=2.09814e-07 to 10.5263 h/Mpc,
# number of wavenumbers equal to 139
#    1:k (h/Mpc)              2:P (Mpc/h)^3        
       2.098140192535e-07       2.533011933888e-01 
       2.641402005889e-07       3.151136640565e-01 
       3.325328107978e-07       3.920100806146e-01 
       4.186340057686e-07       4.876713413733e-01 
       5.270289881033e-07       6.066765851480e-01 
       6.634901858755e-07       7.547223862442e-01 
       8.352846554746e-07       9.388954396739e-01 
       1.051561078859e-06       1.168011788013e+00 
       1.323836964229e-06       1.453038828667e+00 
       1.666611995340e-06       1.807620301662e+00 
       2.098140192535e-06       2.248729386192e+00 
       2.641402005889e-06       2.797481166519e+00 
       3.325328107978e-06       3.480143352206e+00 
       4.186340057686e-06       4.329393628067e+00 
       5.270289881033e-06       5.385883791780e+00 
       6.634901858755e-06       6.700185521964e+00 
       8.352846554746e-06       8.335210834358e+00 
       1.051561078859e-05       1.036922292721e+01 
       1.323836964229e-05       1.289958124668e+01 
       1.666611995340e-05       1.604739942660e+01 
       2.098140192535e-05       1.996333788797e+01 
       2.641402005889e-05       2.483480602385e+01 
       3.325328107978e-05       3.089491411703e+01 
       4.186340057686e-05       3.843359438995e+01 
       5.270289881033e-05       4.781140562375e+01 
       6.634901858755e-05       5.947664691966e+01 
       8.352846554746e-05       7.398653067384e+01 
       1.051561078859e-04       9.203329294772e+01 
       1.323836964229e-04       1.144762272031e+02 
       1.666611995340e-04       1.423806638173e+02 
       2.098140192535e-04       1.770647820148e+02 
       2.641402005889e-04       2.201546497908e+02 
       3.325328107978e-04       2.736467420474e+02 
       4.186340057686e-04       3.399749848349e+02 
       5.270289881033e-04       4.220758004716e+02 
       6.634901858755e-04       5.234400321805e+02 
       8.352846554746e-04       6.481367567005e+02 
       1.051561078859e-03       8.007921979467e+02 
       1.323836964229e-03       9.864971830726e+02 
       1.666611995340e-03       1.210567776015e+03 
       2.098140192535e-03       1.478019601691e+03 
       2.641402005889e-03       1.792698126393e+03 
       3.325328107978e-03       2.156057015738e+03 
       4.186340057686e-03       2.565495902178e+03 
       5.270289881033e-03       3.012153928778e+03 
       6.634901858755e-03       3.478316882709e+03 
       8.352846554746e-03       3.934675780240e+03 
       1.051561078859e-02       4.337715749300e+03 
       1.323836964229e-02       4.628522058289e+03 
       1.666611995337e-02       4.736132268960e+03 
       2.098140171937e-02       4.592420411302e+03 
       2.641387140479e-02       4.168160398680e+03 
       3.323357968019e-02       3.529421873842e+03 
       4.123299361229e-02       2.894194198134e+03 
       4.790632219269e-02       2.528569891029e+03 
       5.275920367973e-02       2.342690154422e+03 
       5.677246018531e-02       2.222672974007e+03 
       6.036109956609e-02       2.129709473714e+03 
       6.371102674430e-02       2.047534933377e+03 
       6.692101071878e-02       1.968017281943e+03 
       7.005043409568e-02       1.886887273686e+03 
       7.313838240686e-02       1.802160939828e+03 
       7.621244612034e-02       1.713424907666e+03 
       7.929323714499e-02       1.621421889571e+03 
       8.239690320693e-02       1.527732700990e+03 
       8.553661991220e-02       1.434479563855e+03 
       8.872352263282e-02       1.344030068099e+03 
       9.196731331326e-02       1.258708605150e+03 
       9.527666941147e-02       1.180532859058e+03 
       9.865952743487e-02       1.110994669351e+03 
       1.021232841748e-01       1.050899012046e+03 
       1.056749422534e-01       1.000266857931e+03 
       1.093212169616e-01       9.583035878940e+02 
       1.130686155477e-01       9.234378848730e+02 
       1.169234964907e-01       8.934437248473e+02 
       1.208921139910e-01       8.656661342030e+02 
       1.249806514135e-01       8.373636898157e+02 
       1.291952464314e-01       8.061502938430e+02 
       1.335420099682e-01       7.704656902282e+02 
       1.380270405956e-01       7.299523085817e+02 
       1.426564357595e-01       6.855976002696e+02 
       1.474363010126e-01       6.395469416290e+02 
       1.523727583097e-01       5.945967529706e+02 
       1.574719543447e-01       5.534970391221e+02 
       1.627400698563e-01       5.182612440145e+02 
       1.681833308004e-01       4.896660653287e+02 
       1.738080222677e-01       4.670532512883e+02 
       1.796205060114e-01       4.484823123840e+02 
       1.856272424417e-01       4.312485793148e+02 
       1.918348179389e-01       4.127139473060e+02 
       1.982499783411e-01       3.912381093522e+02 
       2.048796694758e-01       3.668186699159e+02 
       2.117310856382e-01       3.410583804407e+02 
       2.188117269762e-01       3.163920687615e+02 
       2.261294668449e-01       2.949402354822e+02 
       2.336926303379e-01       2.775624571778e+02 
       2.415100854242e-01       2.635400233855e+02 
       2.495913484286e-01       2.510160543992e+02 
       2.579467060120e-01       2.380216828306e+02 
       2.665873563799e-01       2.235892816629e+02 
       2.755255732043e-01       2.082475685954e+02 
       2.847748967482e-01       1.935009126583e+02 
       2.943503580080e-01       1.806655545532e+02 
       3.042687434488e-01       1.699475059481e+02 
       3.145489102466e-01       1.604214748201e+02 
       3.252121650992e-01       1.508850600614e+02 
       3.362827239310e-01       1.408801705290e+02 
       3.477882756744e-01       1.309592982519e+02 
       3.597606814539e-01       1.219561841700e+02 
       3.722368519986e-01       1.140700932259e+02 
       3.852598625897e-01       1.067509695325e+02 
       3.988803888968e-01       9.944271805624e+01 
       4.131585827853e-01       9.222413038262e+01 
       4.281665613542e-01       8.552563852217e+01 
       4.439917664577e-01       7.941318723622e+01 
       4.607415854189e-01       7.355221667029e+01 
       4.785498415047e-01       6.781371674364e+01 
       4.975861293656e-01       6.238924586601e+01 
       5.180696089577e-01       5.728742260475e+01 
       5.402900263025e-01       5.233622202673e+01 
       5.646409116525e-01       4.756393974479e+01 
       5.916742382783e-01       4.297931900576e+01 
       6.221949245829e-01       3.849115532927e+01 
       6.574339212312e-01       3.409577426698e+01 
       6.993874264609e-01       2.972114527210e+01 
       7.515348877528e-01       2.530750782755e+01 
       8.204808261238e-01       2.076161217274e+01 
       9.198309510026e-01       1.599792241260e+01 
       1.077254073874e+00       1.110477545887e+01 
       1.327225527361e+00       6.800998740949e+00 
       1.668346862746e+00       3.935430179062e+00 
       2.100278141174e+00       2.248466105748e+00 
       2.644093360171e+00       1.273956826615e+00 
       3.328716322194e+00       7.164079607805e-01 
       4.190605566664e+00       4.001329528684e-01 
       5.275659838680e+00       2.221011836027e-01 
       6.641662234896e+00       1.225839207799e-01 
       8.361357364064e+00       6.730657645849e-02 
       1.052632526271e+01       3.677929612105e-02 
