# Matter power spectrum P(k) at redshift z=1.5
# for k=2.09814e-07 to 10.5263 h/Mpc,
# number of wavenumbers equal to 139
#    1:k (h/Mpc)              2:P (Mpc/h)^3        
       2.098140192535e-07       2.458197492308e-01 
       2.641402005889e-07       3.082668119154e-01 
       3.325328107978e-07       3.865776756844e-01 
       4.186340057686e-07       4.847823167953e-01 
       5.270289881033e-07       6.079344703936e-01 
       6.634901858755e-07       7.623717016561e-01 
       8.352846554746e-07       9.560415449721e-01 
       1.051561078859e-06       1.198910493127e+00 
       1.323836964229e-06       1.503476884116e+00 
       1.666611995340e-06       1.885414078704e+00 
       2.098140192535e-06       2.364377025272e+00 
       2.641402005889e-06       2.965013716502e+00 
       3.325328107978e-06       3.718233581674e+00 
       4.186340057686e-06       4.662798080490e+00 
       5.270289881033e-06       5.847315319709e+00 
       6.634901858755e-06       7.332741302870e+00 
       8.352846554746e-06       9.195516434754e+00 
       1.051561078859e-05       1.153149849985e+01 
       1.323836964229e-05       1.446089416361e+01 
       1.666611995340e-05       1.813444204645e+01 
       2.098140192535e-05       2.274116414041e+01 
       2.641402005889e-05       2.851808161749e+01 
       3.325328107978e-05       3.576238939783e+01 
       4.186340057686e-05       4.484670479720e+01 
       5.270289881033e-05       5.623815278060e+01 
       6.634901858755e-05       7.052222597174e+01 
       8.352846554746e-05       8.843256023001e+01 
       1.051561078859e-04       1.108879862688e+02 
       1.323836964229e-04       1.390384262141e+02 
       1.666611995340e-04       1.743213372483e+02 
       2.098140192535e-04       2.185303314695e+02 
       2.641402005889e-04       2.738970771863e+02 
       3.325328107978e-04       3.431862010999e+02 
       4.186340057686e-04       4.298000864116e+02 
       5.270289881033e-04       5.378856872585e+02 
       6.634901858755e-04       6.724290530977e+02 
       8.352846554746e-04       8.393173233553e+02 
       1.051561078859e-03       1.045344331545e+03 
       1.323836964229e-03       1.298121625322e+03 
       1.666611995340e-03       1.605789614155e+03 
       2.098140192535e-03       1.976331210603e+03 
       2.641402005889e-03       2.416388165043e+03 
       3.325328107978e-03       2.929542323744e+03 
       4.186340057686e-03       3.513911834707e+03 
       5.270289881033e-03       4.158882945650e+03 
       6.634901858755e-03       4.841151570647e+03 
       8.352846554746e-03       5.520373817803e+03 
       1.051561078859e-02       6.134803047863e+03 
       1.323836964229e-02       6.598753011250e+03 
       1.666611995337e-02       6.806492308536e+03 
       2.098140171937e-02       6.653055919905e+03 
       2.641387140479e-02       6.087008012404e+03 
       3.323357968019e-02       5.195581377439e+03 
       4.123299361229e-02       4.292574927950e+03 
       4.790632219269e-02       3.769921676678e+03 
       5.275920367973e-02       3.504535999270e+03 
       5.677246018531e-02       3.333490762537e+03 
       6.036109956609e-02       3.200887467216e+03 
       6.371102674430e-02       3.083171501027e+03 
       6.692101071878e-02       2.968507682436e+03 
       7.005043409568e-02       2.850663446780e+03 
       7.313838240686e-02       2.726751278345e+03 
       7.621244612034e-02       2.596206732998e+03 
       7.929323714499e-02       2.460192807230e+03 
       8.239690320693e-02       2.321136967446e+03 
       8.553661991220e-02       2.182292462905e+03 
       8.872352263282e-02       2.047295014175e+03 
       9.196731331326e-02       1.919726419380e+03 
       9.527666941147e-02       1.802712652953e+03 
       9.865952743487e-02       1.698586656575e+03 
       1.021232841748e-01       1.608637618231e+03 
       1.056749422534e-01       1.532956391128e+03 
       1.093212169616e-01       1.470380464222e+03 
       1.130686155477e-01       1.418546860025e+03 
       1.169234964907e-01       1.374073234187e+03 
       1.208921139910e-01       1.332900012033e+03 
       1.249806514135e-01       1.290814836285e+03 
       1.291952464314e-01       1.244133805063e+03 
       1.335420099682e-01       1.190431750820e+03 
       1.380270405956e-01       1.129132568886e+03 
       1.426564357595e-01       1.061740351656e+03 
       1.474363010126e-01       9.915612702443e+02 
       1.523727583097e-01       9.229271097192e+02 
       1.574719543447e-01       8.601172716753e+02 
       1.627400698563e-01       8.062847327545e+02 
       1.681833308004e-01       7.626705013814e+02 
       1.738080222677e-01       7.282835894225e+02 
       1.796205060114e-01       7.001266354968e+02 
       1.856272424417e-01       6.739941136991e+02 
       1.918348179389e-01       6.457653155959e+02 
       1.982499783411e-01       6.128636505759e+02 
       2.048796694758e-01       5.752694178987e+02 
       2.117310856382e-01       5.354830458745e+02 
       2.188117269762e-01       4.973243681316e+02 
       2.261294668449e-01       4.641360976227e+02 
       2.336926303379e-01       4.372897168784e+02 
       2.415100854242e-01       4.156735803995e+02 
       2.495913484286e-01       3.963736547210e+02 
       2.579467060120e-01       3.762854794408e+02 
       2.665873563799e-01       3.538750075335e+02 
       2.755255732043e-01       3.299721365347e+02 
       2.847748967482e-01       3.069582934246e+02 
       2.943503580080e-01       2.869270809880e+02 
       3.042687434488e-01       2.702164883047e+02 
       3.145489102466e-01       2.553652205122e+02 
       3.252121650992e-01       2.404635967430e+02 
       3.362827239310e-01       2.247806288656e+02 
       3.477882756744e-01       2.091962011189e+02 
       3.597606814539e-01       1.950440915493e+02 
       3.722368519986e-01       1.826484559253e+02 
       3.852598625897e-01       1.711337841880e+02 
       3.988803888968e-01       1.596107015232e+02 
       4.131585827853e-01       1.482057752189e+02 
       4.281665613542e-01       1.376119482746e+02 
       4.439917664577e-01       1.279384157205e+02 
       4.607415854189e-01       1.186489169866e+02 
       4.785498415047e-01       1.095364617760e+02 
       4.975861293656e-01       1.009114499552e+02 
       5.180696089577e-01       9.278968163636e+01 
       5.402900263025e-01       8.489409476403e+01 
       5.646409116525e-01       7.727147323451e+01 
       5.916742382783e-01       6.993711308233e+01 
       6.221949245829e-01       6.274357820565e+01 
       6.574339212312e-01       5.568542071009e+01 
       6.993874264609e-01       4.864535927929e+01 
       7.515348877528e-01       4.152523556591e+01 
       8.204808261238e-01       3.417042263819e+01 
       9.198309510026e-01       2.643506118487e+01 
       1.077254073874e+00       1.845075523338e+01 
       1.327225527361e+00       1.138232195235e+01 
       1.668346862746e+00       6.639073418399e+00 
       2.100278141174e+00       3.823677653914e+00 
       2.644093360171e+00       2.183884355379e+00 
       3.328716322194e+00       1.237984849860e+00 
       4.190605566664e+00       6.970103802658e-01 
       5.275659838680e+00       3.900010710990e-01 
       6.641662234896e+00       2.169843616135e-01 
       8.361357364064e+00       1.200970742900e-01 
       1.052632526271e+01       6.615433989691e-02 
