# Matter power spectrum P(k) at redshift z=0
# for k=2.09814e-07 to 10.5263 h/Mpc,
# number of wavenumbers equal to 139
#    1:k (h/Mpc)              2:P (Mpc/h)^3        
       2.098140192535e-07       1.811186924673e+00 
       2.641402005889e-07       2.246018214677e+00 
       3.325328107978e-07       2.785244167798e+00 
       4.186340057686e-07       3.453927941925e+00 
       5.270289881033e-07       4.283149877909e+00 
       6.634901858755e-07       5.311452108255e+00 
       8.352846554746e-07       6.586629988620e+00 
       1.051561078859e-06       8.167953614194e+00 
       1.323836964229e-06       1.012892267537e+01 
       1.666611995340e-06       1.256068269274e+01 
       2.098140192535e-06       1.557626140595e+01 
       2.641402005889e-06       1.931582220336e+01 
       3.325328107978e-06       2.395317872858e+01 
       4.186340057686e-06       2.970387338743e+01 
       5.270289881033e-06       3.683519507187e+01 
       6.634901858755e-06       4.567860142665e+01 
       8.352846554746e-06       5.664512242549e+01 
       1.051561078859e-05       7.024446000024e+01 
       1.323836964229e-05       8.710866912481e+01 
       1.666611995340e-05       1.080215163836e+02 
       2.098140192535e-05       1.339548714894e+02 
       2.641402005889e-05       1.661138052800e+02 
       3.325328107978e-05       2.059924551697e+02 
       4.186340057686e-05       2.554431856312e+02 
       5.270289881033e-05       3.167621230576e+02 
       6.634901858755e-05       3.927947762126e+02 
       8.352846554746e-05       4.870661359646e+02 
       1.051561078859e-04       6.039403010167e+02 
       1.323836964229e-04       7.488151224377e+02 
       1.666611995340e-04       9.283572475317e+02 
       2.098140192535e-04       1.150781639721e+03 
       2.641402005889e-04       1.426176150379e+03 
       3.325328107978e-04       1.766864743949e+03 
       4.186340057686e-04       2.187791660726e+03 
       5.270289881033e-04       2.706894148188e+03 
       6.634901858755e-04       3.345415957581e+03 
       8.352846554746e-04       4.128088737122e+03 
       1.051561078859e-03       5.083022681662e+03 
       1.323836964229e-03       6.240959288589e+03 
       1.666611995340e-03       7.633466090537e+03 
       2.098140192535e-03       9.289737840418e+03 
       2.641402005889e-03       1.123133991795e+04 
       3.325328107978e-03       1.346456056055e+04 
       4.186340057686e-03       1.597038075448e+04 
       5.270289881033e-03       1.869114850578e+04 
       6.634901858755e-03       2.151516536235e+04 
       8.352846554746e-03       2.426064845977e+04 
       1.051561078859e-02       2.666080153639e+04 
       1.323836964229e-02       2.835786891030e+04 
       1.666611995337e-02       2.892507711209e+04 
       2.098140171937e-02       2.795837885388e+04 
       2.641387140479e-02       2.529499360911e+04 
       3.323357968019e-02       2.135094514978e+04 
       4.123299361229e-02       1.745615072824e+04 
       4.790632219269e-02       1.521937020117e+04 
       5.275920367973e-02       1.408180269553e+04 
       5.677246018531e-02       1.334687439164e+04 
       6.036109956609e-02       1.277782711200e+04 
       6.371102674430e-02       1.227564282468e+04 
       6.692101071878e-02       1.179090714876e+04 
       7.005043409568e-02       1.129770827818e+04 
       7.313838240686e-02       1.078398894050e+04 
       7.621244612034e-02       1.024717569166e+04 
       7.929323714499e-02       9.691647967673e+03 
       8.239690320693e-02       9.126806816653e+03 
       8.553661991220e-02       8.565282876058e+03 
       8.872352263282e-02       8.021158349806e+03 
       9.196731331326e-02       7.508239131866e+03 
       9.527666941147e-02       7.038483474983e+03 
       9.865952743487e-02       6.620699657289e+03 
       1.021232841748e-01       6.259592974007e+03 
       1.056749422534e-01       5.955196455686e+03 
       1.093212169616e-01       5.702693403102e+03 
       1.130686155477e-01       5.492658524225e+03 
       1.169234964907e-01       5.311793626324e+03 
       1.208921139910e-01       5.144277268375e+03 
       1.249806514135e-01       4.973804752656e+03 
       1.291952464314e-01       4.786211146976e+03 
       1.335420099682e-01       4.572258918221e+03 
       1.380270405956e-01       4.329861574809e+03 
       1.426564357595e-01       4.064911525896e+03 
       1.474363010126e-01       3.790152737247e+03 
       1.523727583097e-01       3.522162871733e+03 
       1.574719543447e-01       3.277214871138e+03 
       1.627400698563e-01       3.067193169632e+03 
       1.681833308004e-01       2.896644681764e+03 
       1.738080222677e-01       2.761623404149e+03 
       1.796205060114e-01       2.650612428703e+03 
       1.856272424417e-01       2.547601203999e+03 
       1.918348179389e-01       2.437001364962e+03 
       1.982499783411e-01       2.309141941836e+03 
       2.048796694758e-01       2.164032446783e+03 
       2.117310856382e-01       2.011147472756e+03 
       2.188117269762e-01       1.864848825844e+03 
       2.261294668449e-01       1.737620393765e+03 
       2.336926303379e-01       1.634498155876e+03 
       2.415100854242e-01       1.551218895764e+03 
       2.495913484286e-01       1.476830819034e+03 
       2.579467060120e-01       1.399743387406e+03 
       2.665873563799e-01       1.314272462503e+03 
       2.755255732043e-01       1.223535900373e+03 
       2.847748967482e-01       1.136375607847e+03 
       2.943503580080e-01       1.060513084451e+03 
       3.042687434488e-01       9.971416313142e+02 
       3.145489102466e-01       9.408175539796e+02 
       3.252121650992e-01       8.844826986852e+02 
       3.362827239310e-01       8.254529965874e+02 
       3.477882756744e-01       7.669679077063e+02 
       3.597606814539e-01       7.139073223191e+02 
       3.722368519986e-01       6.674296329555e+02 
       3.852598625897e-01       6.243087421299e+02 
       3.988803888968e-01       5.812893231068e+02 
       4.131585827853e-01       5.388317066310e+02 
       4.281665613542e-01       4.994488904011e+02 
       4.439917664577e-01       4.635214475326e+02 
       4.607415854189e-01       4.290926052377e+02 
       4.785498415047e-01       3.954080694305e+02 
       4.975861293656e-01       3.635832930068e+02 
       5.180696089577e-01       3.336657958101e+02 
       5.402900263025e-01       3.046513266646e+02 
       5.646409116525e-01       2.767032829599e+02 
       5.916742382783e-01       2.498709291440e+02 
       6.221949245829e-01       2.236226013603e+02 
       6.574339212312e-01       1.979361509982e+02 
       6.993874264609e-01       1.723928874396e+02 
       7.515348877528e-01       1.466466589223e+02 
       8.204808261238e-01       1.201594121724e+02 
       9.198309510026e-01       9.244325728356e+01 
       1.077254073874e+00       6.402867876942e+01 
       1.327225527361e+00       3.910089185186e+01 
       1.668346862746e+00       2.255459447200e+01 
       2.100278141174e+00       1.284543750856e+01 
       2.644093360171e+00       7.254987227949e+00 
       3.328716322194e+00       4.066880130772e+00 
       4.190605566664e+00       2.264246712939e+00 
       5.275659838680e+00       1.252817635823e+00 
       6.641662234896e+00       6.892656287223e-01 
       8.361357364064e+00       3.772458589224e-01 
       1.052632526271e+01       2.054852579021e-01 
