# Matter power spectrum P(k) at redshift z=0
# for k=2.09814e-07 to 10.5263 h/Mpc,
# number of wavenumbers equal to 139
#    1:k (h/Mpc)              2:P (Mpc/h)^3        
       2.098140192535e-07       1.233862779255e+00 
       2.641402005889e-07       1.532840134972e+00 
       3.325328107978e-07       1.904262708940e+00 
       4.186340057686e-07       2.365684705027e+00 
       5.270289881033e-07       2.938913886342e+00 
       6.634901858755e-07       3.651042254247e+00 
       8.352846554746e-07       4.535726471174e+00 
       1.051561078859e-06       5.634778540346e+00 
       1.323836964229e-06       7.000141920221e+00 
       1.666611995340e-06       8.696346465194e+00 
       2.098140192535e-06       1.080355821004e+01 
       2.641402005889e-06       1.342136812317e+01 
       3.325328107978e-06       1.667349886311e+01 
       4.186340057686e-06       2.071365193651e+01 
       5.270289881033e-06       2.573277148555e+01 
       6.634901858755e-06       3.196806779596e+01 
       8.352846554746e-06       3.971422655673e+01 
       1.051561078859e-05       4.933733278254e+01 
       1.323836964229e-05       6.129216580125e+01 
       1.666611995340e-05       7.614367937738e+01 
       2.098140192535e-05       9.459367565145e+01 
       2.641402005889e-05       1.175139207169e+02 
       3.325328107978e-05       1.459872417215e+02 
       4.186340057686e-05       1.813584982268e+02 
       5.270289881033e-05       2.252977395168e+02 
       6.634901858755e-05       2.798783421289e+02 
       8.352846554746e-05       3.476734481496e+02 
       1.051561078859e-04       4.318745381988e+02 
       1.323836964229e-04       5.364363461086e+02 
       1.666611995340e-04       6.662523002574e+02 
       2.098140192535e-04       8.273637969395e+02 
       2.641402005889e-04       1.027204134559e+03 
       3.325328107978e-04       1.274872913860e+03 
       4.186340057686e-04       1.581428465637e+03 
       5.270289881033e-04       1.960175074608e+03 
       6.634901858755e-04       2.426910235865e+03 
       8.352846554746e-04       3.000078464775e+03 
       1.051561078859e-03       3.700714969539e+03 
       1.323836964229e-03       4.551923333765e+03 
       1.666611995340e-03       5.577574372076e+03 
       2.098140192535e-03       6.799970794720e+03 
       2.641402005889e-03       8.235977673651e+03 
       3.325328107978e-03       9.891354642562e+03 
       4.186340057686e-03       1.175327396756e+04 
       5.270289881033e-03       1.378032871430e+04 
       6.634901858755e-03       1.589089205599e+04 
       8.352846554746e-03       1.795089035004e+04 
       1.051561078859e-02       1.976226830381e+04 
       1.323836964229e-02       2.105800283391e+04 
       1.666611995337e-02       2.151781229041e+04 
       2.098140171937e-02       2.083605881891e+04 
       2.641387140479e-02       1.888505022515e+04 
       3.323357968019e-02       1.596903550582e+04 
       4.123299361229e-02       1.307798013395e+04 
       4.790632219269e-02       1.141555485442e+04 
       5.275920367973e-02       1.057025492251e+04 
       5.677246018531e-02       1.002432474724e+04 
       6.036109956609e-02       9.601524479534e+03 
       6.371102674430e-02       9.228059745193e+03 
       6.692101071878e-02       8.867064894926e+03 
       7.005043409568e-02       8.499195930404e+03 
       7.313838240686e-02       8.115458245814e+03 
       7.621244612034e-02       7.713957904010e+03 
       7.929323714499e-02       7.298018380278e+03 
       8.239690320693e-02       6.874739448653e+03 
       8.553661991220e-02       6.453655471340e+03 
       8.872352263282e-02       6.045400430560e+03 
       9.196731331326e-02       5.660407757965e+03 
       9.527666941147e-02       5.307725699149e+03 
       9.865952743487e-02       4.994033502015e+03 
       1.021232841748e-01       4.722919548379e+03 
       1.056749422534e-01       4.494447945616e+03 
       1.093212169616e-01       4.305020242530e+03 
       1.130686155477e-01       4.147553036866e+03 
       1.169234964907e-01       4.012029406736e+03 
       1.208921139910e-01       3.886515039443e+03 
       1.249806514135e-01       3.758697601261e+03 
       1.291952464314e-01       3.617869163264e+03 
       1.335420099682e-01       3.457036106316e+03 
       1.380270405956e-01       3.274605695894e+03 
       1.426564357595e-01       3.075019330688e+03 
       1.474363010126e-01       2.867907279604e+03 
       1.523727583097e-01       2.665811222986e+03 
       1.574719543447e-01       2.481054944515e+03 
       1.627400698563e-01       2.322651575901e+03 
       1.681833308004e-01       2.194065621796e+03 
       1.738080222677e-01       2.092330468439e+03 
       1.796205060114e-01       2.008738883130e+03 
       1.856272424417e-01       1.931168331249e+03 
       1.918348179389e-01       1.847803930284e+03 
       1.982499783411e-01       1.751306551215e+03 
       2.048796694758e-01       1.641673316902e+03 
       2.117310856382e-01       1.526083573609e+03 
       2.188117269762e-01       1.415433474098e+03 
       2.261294668449e-01       1.319204642581e+03 
       2.336926303379e-01       1.241232521945e+03 
       2.415100854242e-01       1.178292902141e+03 
       2.495913484286e-01       1.122076371602e+03 
       2.579467060120e-01       1.063779553101e+03 
       2.665873563799e-01       9.990799350688e+02 
       2.755255732043e-01       9.303433544425e+02 
       2.847748967482e-01       8.642916086036e+02 
       2.943503580080e-01       8.068010502436e+02 
       3.042687434488e-01       7.587863961580e+02 
       3.145489102466e-01       7.161115194815e+02 
       3.252121650992e-01       6.734068396714e+02 
       3.362827239310e-01       6.286282936701e+02 
       3.477882756744e-01       5.842419386497e+02 
       3.597606814539e-01       5.439663355453e+02 
       3.722368519986e-01       5.086876056019e+02 
       3.852598625897e-01       4.759502681355e+02 
       3.988803888968e-01       4.432739391517e+02 
       4.131585827853e-01       4.110097592139e+02 
       4.281665613542e-01       3.810753982275e+02 
       4.439917664577e-01       3.537631876705e+02 
       4.607415854189e-01       3.275814327827e+02 
       4.785498415047e-01       3.019550102789e+02 
       4.975861293656e-01       2.777363804520e+02 
       5.180696089577e-01       2.549630211881e+02 
       5.402900263025e-01       2.328685526977e+02 
       5.646409116525e-01       2.115784427094e+02 
       5.916742382783e-01       1.911310548086e+02 
       6.221949245829e-01       1.711203271107e+02 
       6.574339212312e-01       1.515296595247e+02 
       6.993874264609e-01       1.320387556706e+02 
       7.515348877528e-01       1.123822845257e+02 
       8.204808261238e-01       9.214691690591e+01 
       9.198309510026e-01       7.095539830771e+01 
       1.077254073874e+00       4.920620843015e+01 
       1.327225527361e+00       3.009808832239e+01 
       1.668346862746e+00       1.739250498799e+01 
       2.100278141174e+00       9.923295860434e+00 
       2.644093360171e+00       5.614662959093e+00 
       3.328716322194e+00       3.153032236701e+00 
       4.190605566664e+00       1.758615047947e+00 
       5.275659838680e+00       9.747986011993e-01 
       6.641662234896e+00       5.372713238706e-01 
       8.361357364064e+00       2.945856043744e-01 
       1.052632526271e+01       1.607487886223e-01 
