# Matter power spectrum P(k) at redshift z=2.5
# for k=2.09814e-07 to 10.5263 h/Mpc,
# number of wavenumbers equal to 139
#    1:k (h/Mpc)              2:P (Mpc/h)^3        
       2.098140192535e-07       1.324707706374e-01 
       2.641402005889e-07       1.650251219706e-01 
       3.325328107978e-07       2.055796213793e-01 
       4.186340057686e-07       2.561002846606e-01 
       5.270289881033e-07       3.190362709209e-01 
       6.634901858755e-07       3.974386133874e-01 
       8.352846554746e-07       4.951081288199e-01 
       1.051561078859e-06       6.167796742471e-01 
       1.323836964229e-06       7.683516843694e-01 
       1.666611995340e-06       9.571721169458e-01 
       2.098140192535e-06       1.192394666860e+00 
       2.641402005889e-06       1.485422516991e+00 
       3.325328107978e-06       1.850461134278e+00 
       4.186340057686e-06       2.305206909490e+00 
       5.270289881033e-06       2.871705004315e+00 
       6.634901858755e-06       3.577417984843e+00 
       8.352846554746e-06       4.456557003045e+00 
       1.051561078859e-05       5.551739974588e+00 
       1.323836964229e-05       6.916057001233e+00 
       1.666611995340e-05       8.615642850659e+00 
       2.098140192535e-05       1.073288061695e+01 
       2.641402005889e-05       1.337039068163e+01 
       3.325328107978e-05       1.665599604795e+01 
       4.186340057686e-05       2.074890016807e+01 
       5.270289881033e-05       2.584736773353e+01 
       6.634901858755e-05       3.219826298569e+01 
       8.352846554746e-05       4.010887295117e+01 
       1.051561078859e-04       4.996152006612e+01 
       1.323836964229e-04       6.223153802888e+01 
       1.666611995340e-04       7.750922035625e+01 
       2.098140192535e-04       9.652629954092e+01 
       2.641402005889e-04       1.201872751796e+02 
       3.325328107978e-04       1.496053065737e+02 
       4.186340057686e-04       1.861411509680e+02 
       5.270289881033e-04       2.314414570651e+02 
       6.634901858755e-04       2.874695382269e+02 
       8.352846554746e-04       3.565183514181e+02 
       1.051561078859e-03       4.411938914708e+02 
       1.323836964229e-03       5.443575800366e+02 
       1.666611995340e-03       6.690038468947e+02 
       2.098140192535e-03       8.179983165190e+02 
       2.641402005889e-03       9.935799375569e+02 
       3.325328107978e-03       1.196659966256e+03 
       4.186340057686e-03       1.425908531376e+03 
       5.270289881033e-03       1.676501174804e+03 
       6.634901858755e-03       1.938652425127e+03 
       8.352846554746e-03       2.196050897277e+03 
       1.051561078859e-02       2.424355058151e+03 
       1.323836964229e-02       2.590469928958e+03 
       1.666611995337e-02       2.654365572148e+03 
       2.098140171937e-02       2.577383234396e+03 
       2.641387140479e-02       2.342513287326e+03 
       3.323357968019e-02       1.986277279768e+03 
       4.123299361229e-02       1.630895266661e+03 
       4.790632219269e-02       1.426147074299e+03 
       5.275920367973e-02       1.322073713998e+03 
       5.677246018531e-02       1.254895159061e+03 
       6.036109956609e-02       1.202851382546e+03 
       6.371102674430e-02       1.156814400834e+03 
       6.692101071878e-02       1.112216614005e+03 
       7.005043409568e-02       1.066658800098e+03 
       7.313838240686e-02       1.019026669278e+03 
       7.621244612034e-02       9.690905118346e+02 
       7.929323714499e-02       9.172729113218e+02 
       8.239690320693e-02       8.644700786467e+02 
       8.553661991220e-02       8.118848148340e+02 
       8.872352263282e-02       7.608593165700e+02 
       9.196731331326e-02       7.127121338402e+02 
       9.527666941147e-02       6.685888968700e+02 
       9.865952743487e-02       6.293380205326e+02 
       1.021232841748e-01       5.954192748475e+02 
       1.056749422534e-01       5.668483362318e+02 
       1.093212169616e-01       5.431784117422e+02 
       1.130686155477e-01       5.235219515434e+02 
       1.169234964907e-01       5.066193410349e+02 
       1.208921139910e-01       4.909666261737e+02 
       1.249806514135e-01       4.750095360046e+02 
       1.291952464314e-01       4.573941870949e+02 
       1.335420099682e-01       4.372342324205e+02 
       1.380270405956e-01       4.143252759058e+02 
       1.426564357595e-01       3.892263165697e+02 
       1.474363010126e-01       3.631543217625e+02 
       1.523727583097e-01       3.376969564136e+02 
       1.574719543447e-01       3.144167652064e+02 
       1.627400698563e-01       2.944590277249e+02 
       1.681833308004e-01       2.782671075677e+02 
       1.738080222677e-01       2.654691092988e+02 
       1.796205060114e-01       2.549638587383e+02 
       1.856272424417e-01       2.452148079791e+02 
       1.918348179389e-01       2.347220408096e+02 
       1.982499783411e-01       2.225520508659e+02 
       2.048796694758e-01       2.087024719244e+02 
       2.117310856382e-01       1.940843876603e+02 
       2.188117269762e-01       1.800831934175e+02 
       2.261294668449e-01       1.679064370347e+02 
       2.336926303379e-01       1.580446398368e+02 
       2.415100854242e-01       1.500898653389e+02 
       2.495913484286e-01       1.429855161831e+02 
       2.579467060120e-01       1.356103602260e+02 
       2.665873563799e-01       1.274128383634e+02 
       2.755255732043e-01       1.186938139854e+02 
       2.847748967482e-01       1.103105894742e+02 
       2.943503580080e-01       1.030138763699e+02 
       3.042687434488e-01       9.692181113076e+01 
       3.145489102466e-01       9.150731535471e+01 
       3.252121650992e-01       8.608478925521e+01 
       3.362827239310e-01       8.039282234297e+01 
       3.477882756744e-01       7.474659478147e+01 
       3.597606814539e-01       6.962209586558e+01 
       3.722368519986e-01       6.513342224134e+01 
       3.852598625897e-01       6.096681976456e+01 
       3.988803888968e-01       5.680482587920e+01 
       4.131585827853e-01       5.269245846665e+01 
       4.281665613542e-01       4.887572305820e+01 
       4.439917664577e-01       4.539249661106e+01 
       4.607415854189e-01       4.205171451323e+01 
       4.785498415047e-01       3.877968764517e+01 
       4.975861293656e-01       3.568602317462e+01 
       5.180696089577e-01       3.277576368310e+01 
       5.402900263025e-01       2.995058718746e+01 
       5.646409116525e-01       2.722674153085e+01 
       5.916742382783e-01       2.460929908847e+01 
       6.221949245829e-01       2.204609779071e+01 
       6.574339212312e-01       1.953506677106e+01 
       6.993874264609e-01       1.703495872724e+01 
       7.515348877528e-01       1.451150058476e+01 
       8.204808261238e-01       1.191112408540e+01 
       9.198309510026e-01       9.184449336273e+00 
       1.077254073874e+00       6.381327339093e+00 
       1.327225527361e+00       3.913071466025e+00 
       1.668346862746e+00       2.267427918641e+00 
       2.100278141174e+00       1.297262290285e+00 
       2.644093360171e+00       7.360317010300e-01 
       3.328716322194e+00       4.144792417361e-01 
       4.190605566664e+00       2.318182416584e-01 
       5.275659838680e+00       1.288533145835e-01 
       6.641662234896e+00       7.121647996672e-02 
       8.361357364064e+00       3.915688181988e-02 
       1.052632526271e+01       2.142691909431e-02 
