# Matter power spectrum P(k) at redshift z=2
# for k=2.09814e-07 to 10.5263 h/Mpc,
# number of wavenumbers equal to 139
#    1:k (h/Mpc)              2:P (Mpc/h)^3        
       2.098140192535e-07       1.917923804474e-01 
       2.641402005889e-07       2.390239115060e-01 
       3.325328107978e-07       2.978868613967e-01 
       4.186340057686e-07       3.712456281023e-01 
       5.270289881033e-07       4.626700072395e-01 
       6.634901858755e-07       5.766089055447e-01 
       8.352846554746e-07       7.186068344891e-01 
       1.051561078859e-06       8.955737173335e-01 
       1.323836964229e-06       1.116121139811e+00 
       1.666611995340e-06       1.390981406671e+00 
       2.098140192535e-06       1.733529794455e+00 
       2.641402005889e-06       2.160435413251e+00 
       3.325328107978e-06       2.692472344466e+00 
       4.186340057686e-06       3.355530523630e+00 
       5.270289881033e-06       4.181875534136e+00 
       6.634901858755e-06       5.211718598088e+00 
       8.352846554746e-06       6.495173099011e+00 
       1.051561078859e-05       8.094692719628e+00 
       1.323836964229e-05       1.008810962299e+01 
       1.666611995340e-05       1.257242004886e+01 
       2.098140192535e-05       1.566850064413e+01 
       2.641402005889e-05       1.952698323294e+01 
       3.325328107978e-05       2.433557038926e+01 
       4.186340057686e-05       3.032814082191e+01 
       5.270289881033e-05       3.779607392313e+01 
       6.634901858755e-05       4.710231746790e+01 
       8.352846554746e-05       5.869882974571e+01 
       1.051561078859e-04       7.314814031085e+01 
       1.323836964229e-04       9.114987390030e+01 
       1.666611995340e-04       1.135731303068e+02 
       2.098140192535e-04       1.414955289241e+02 
       2.641402005889e-04       1.762493611143e+02 
       3.325328107978e-04       2.194743928276e+02 
       4.186340057686e-04       2.731750542476e+02 
       5.270289881033e-04       3.397766714991e+02 
       6.634901858755e-04       4.221711032689e+02 
       8.352846554746e-04       5.237379957994e+02 
       1.051561078859e-03       6.483262796051e+02 
       1.323836964229e-03       8.001778420923e+02 
       1.666611995340e-03       9.837457428381e+02 
       2.098140192535e-03       1.203287158595e+03 
       2.641402005889e-03       1.462133246786e+03 
       3.325328107978e-03       1.761679386884e+03 
       4.186340057686e-03       2.100015129968e+03 
       5.270289881033e-03       2.468740299080e+03 
       6.634901858755e-03       2.855560464733e+03 
       8.352846554746e-03       3.235501334093e+03 
       1.051561078859e-02       3.572638604961e+03 
       1.323836964229e-02       3.818124746559e+03 
       1.666611995337e-02       3.912895746994e+03 
       2.098140171937e-02       3.799970127447e+03 
       2.641387140479e-02       3.454411826000e+03 
       3.323357968019e-02       2.930330755544e+03 
       4.123299361229e-02       2.407990913509e+03 
       4.790632219269e-02       2.107492066035e+03 
       5.275920367973e-02       1.954970759059e+03 
       5.677246018531e-02       1.856624232073e+03 
       6.036109956609e-02       1.780480770502e+03 
       6.371102674430e-02       1.713138852179e+03 
       6.692101071878e-02       1.647898554681e+03 
       7.005043409568e-02       1.581245360668e+03 
       7.313838240686e-02       1.511551165919e+03 
       7.621244612034e-02       1.438485412341e+03 
       7.929323714499e-02       1.362673130552e+03 
       8.239690320693e-02       1.285432035652e+03 
       8.553661991220e-02       1.208526908768e+03 
       8.872352263282e-02       1.133924232404e+03 
       9.196731331326e-02       1.063553108071e+03 
       9.527666941147e-02       9.990868734854e+02 
       9.865952743487e-02       9.417616301076e+02 
       1.021232841748e-01       8.922431416202e+02 
       1.056749422534e-01       8.505467590004e+02 
       1.093212169616e-01       8.160118049821e+02 
       1.130686155477e-01       7.873345520847e+02 
       1.169234964907e-01       7.626699406776e+02 
       1.208921139910e-01       7.398191651580e+02 
       1.249806514135e-01       7.165135737707e+02 
       1.291952464314e-01       6.907803993531e+02 
       1.335420099682e-01       6.613316960932e+02 
       1.380270405956e-01       6.278753961664e+02 
       1.426564357595e-01       5.912319401560e+02 
       1.474363010126e-01       5.531782846562e+02 
       1.523727583097e-01       5.160275343768e+02 
       1.574719543447e-01       4.820516854361e+02 
       1.627400698563e-01       4.529115017279e+02 
       1.681833308004e-01       4.292445549994e+02 
       1.738080222677e-01       4.105035138194e+02 
       1.796205060114e-01       3.950842126906e+02 
       1.856272424417e-01       3.807545637367e+02 
       1.918348179389e-01       3.653401736009e+02 
       1.982499783411e-01       3.474916753890e+02 
       2.048796694758e-01       3.272109776372e+02 
       2.117310856382e-01       3.058220089086e+02 
       2.188117269762e-01       2.853313093440e+02 
       2.261294668449e-01       2.674828931976e+02 
       2.336926303379e-01       2.529806287103e+02 
       2.415100854242e-01       2.412304022512e+02 
       2.495913484286e-01       2.307047002512e+02 
       2.579467060120e-01       2.197867947611e+02 
       2.665873563799e-01       2.076843715585e+02 
       2.755255732043e-01       1.948339389207e+02 
       2.847748967482e-01       1.824706369190e+02 
       2.943503580080e-01       1.716722466381e+02 
       3.042687434488e-01       1.626051555321e+02 
       3.145489102466e-01       1.545103221030e+02 
       3.252121650992e-01       1.464041173831e+02 
       3.362827239310e-01       1.379132047281e+02 
       3.477882756744e-01       1.294899241659e+02 
       3.597606814539e-01       1.218143410659e+02 
       3.722368519986e-01       1.150473300453e+02 
       3.852598625897e-01       1.087394207851e+02 
       3.988803888968e-01       1.024376589740e+02 
       4.131585827853e-01       9.620620103463e+01 
       4.281665613542e-01       9.039396577328e+01 
       4.439917664577e-01       8.505280906427e+01 
       4.607415854189e-01       7.991003451991e+01 
       4.785498415047e-01       7.485999328917e+01 
       4.975861293656e-01       7.005573621268e+01 
       5.180696089577e-01       6.550147585967e+01 
       5.402900263025e-01       6.105536678776e+01 
       5.646409116525e-01       5.673607248394e+01 
       5.916742382783e-01       5.254475722838e+01 
       6.221949245829e-01       4.840020462278e+01 
       6.574339212312e-01       4.428748925655e+01 
       6.993874264609e-01       4.013065867023e+01 
       7.515348877528e-01       3.585198479856e+01 
       8.204808261238e-01       3.132561815293e+01 
       9.198309510026e-01       2.639366758999e+01 
       1.077254073874e+00       2.099998523270e+01 
       1.327225527361e+00       1.573194203264e+01 
       1.668346862746e+00       1.161558944343e+01 
       2.100278141174e+00       8.625522674426e+00 
       2.644093360171e+00       6.406902640927e+00 
       3.328716322194e+00       4.724886345704e+00 
       4.190605566664e+00       3.435907794573e+00 
       5.275659838680e+00       2.449734044236e+00 
       6.641662234896e+00       1.705221952595e+00 
       8.361357364064e+00       1.155733443452e+00 
       1.052632526271e+01       7.617487305008e-01 
