# Matter power spectrum P(k) at redshift z=0
# for k=2.09814e-07 to 10.5263 h/Mpc,
# number of wavenumbers equal to 139
#    1:k (h/Mpc)              2:P (Mpc/h)^3        
       2.098140192535e-07       9.928546319221e-01 
       2.641402005889e-07       1.240439724744e+00 
       3.325328107978e-07       1.549764346827e+00 
       4.186340057686e-07       1.936224293201e+00 
       5.270289881033e-07       2.419054560055e+00 
       6.634901858755e-07       3.022286713488e+00 
       8.352846554746e-07       3.775944994280e+00 
       1.051561078859e-06       4.717540689543e+00 
       1.323836964229e-06       5.893939148629e+00 
       1.666611995340e-06       7.363692365687e+00 
       2.098140192535e-06       9.199953219663e+00 
       2.641402005889e-06       1.149411640765e+01 
       3.325328107978e-06       1.436036726237e+01 
       4.186340057686e-06       1.794136481133e+01 
       5.270289881033e-06       2.241534182756e+01 
       6.634901858755e-06       2.800497506582e+01 
       8.352846554746e-06       3.498846677565e+01 
       1.051561078859e-05       4.371338825140e+01 
       1.323836964229e-05       5.461397289883e+01 
       1.666611995340e-05       6.823271644203e+01 
       2.098140192535e-05       8.524735326985e+01 
       2.641402005889e-05       1.065045395188e+02 
       3.325328107978e-05       1.330618955216e+02 
       4.186340057686e-05       1.662404529930e+02 
       5.270289881033e-05       2.076900242748e+02 
       6.634901858755e-05       2.594705637666e+02 
       8.352846554746e-05       3.241532107044e+02 
       1.051561078859e-04       4.049453376688e+02 
       1.323836964229e-04       5.058444605565e+02 
       1.666611995340e-04       6.318260448228e+02 
       2.098140192535e-04       7.890696079020e+02 
       2.641402005889e-04       9.852253131908e+02 
       3.325328107978e-04       1.229718472369e+03 
       4.186340057686e-04       1.534081224148e+03 
       5.270289881033e-04       1.912289609161e+03 
       6.634901858755e-04       2.381071934911e+03 
       8.352846554746e-04       2.960134306904e+03 
       1.051561078859e-03       3.672184047358e+03 
       1.323836964229e-03       4.542487506972e+03 
       1.666611995340e-03       5.597629796581e+03 
       2.098140192535e-03       6.863187284745e+03 
       2.641402005889e-03       8.359762963038e+03 
       3.325328107978e-03       1.009705160743e+04 
       4.186340057686e-03       1.206584278838e+04 
       5.270289881033e-03       1.417720330731e+04 
       6.634901858755e-03       1.642664826807e+04 
       8.352846554746e-03       1.864059760312e+04 
       1.051561078859e-02       2.060946557123e+04 
       1.323836964229e-02       2.204778843196e+04 
       1.666611995337e-02       2.261043825270e+04 
       2.098140171937e-02       2.196517334156e+04 
       2.641387140479e-02       1.996805468896e+04 
       3.323357968019e-02       1.693664672161e+04 
       4.123299361229e-02       1.391990606496e+04 
       4.790632219269e-02       1.218980858536e+04 
       5.275920367973e-02       1.131536721596e+04 
       5.677246018531e-02       1.075413961427e+04 
       6.036109956609e-02       1.032155559973e+04 
       6.371102674430e-02       9.940298149433e+03 
       6.692101071878e-02       9.571692171019e+03 
       7.005043409568e-02       9.195403064548e+03 
       7.313838240686e-02       8.801953123672e+03 
       7.621244612034e-02       8.389345900395e+03 
       7.929323714499e-02       7.961112507677e+03 
       8.239690320693e-02       7.524806463058e+03 
       8.553661991220e-02       7.090585423235e+03 
       8.872352263282e-02       6.669785681717e+03 
       9.196731331326e-02       6.273526884857e+03 
       9.527666941147e-02       5.911441849033e+03 
       9.865952743487e-02       5.590629163240e+03 
       1.021232841748e-01       5.314895413287e+03 
       1.056749422534e-01       5.084310653854e+03 
       1.093212169616e-01       4.895074395707e+03 
       1.130686155477e-01       4.739702710431e+03 
       1.169234964907e-01       4.607590814155e+03 
       1.208921139910e-01       4.486052052454e+03 
       1.249806514135e-01       4.361916073188e+03 
       1.291952464314e-01       4.223632174552e+03 
       1.335420099682e-01       4.063563527401e+03 
       1.380270405956e-01       3.879871853834e+03 
       1.426564357595e-01       3.677267375983e+03 
       1.474363010126e-01       3.466112254830e+03 
       1.523727583097e-01       3.259918000779e+03 
       1.574719543447e-01       3.071914116333e+03 
       1.627400698563e-01       2.911712260822e+03 
       1.681833308004e-01       2.782960561061e+03 
       1.738080222677e-01       2.682466512273e+03 
       1.796205060114e-01       2.600942520317e+03 
       1.856272424417e-01       2.525426735921e+03 
       1.918348179389e-01       2.443210100814e+03 
       1.982499783411e-01       2.346346001012e+03 
       2.048796694758e-01       2.234828387373e+03 
       2.117310856382e-01       2.116450610838e+03 
       2.188117269762e-01       2.002970119978e+03 
       2.261294668449e-01       1.904501902830e+03 
       2.336926303379e-01       1.825040974450e+03 
       2.415100854242e-01       1.761085324905e+03 
       2.495913484286e-01       1.703790068348e+03 
       2.579467060120e-01       1.643822086768e+03 
       2.665873563799e-01       1.576645545198e+03 
       2.755255732043e-01       1.504857312777e+03 
       2.847748967482e-01       1.435608546913e+03 
       2.943503580080e-01       1.375025324386e+03 
       3.042687434488e-01       1.323967037155e+03 
       3.145489102466e-01       1.278081386693e+03 
       3.252121650992e-01       1.231831159231e+03 
       3.362827239310e-01       1.183181951377e+03 
       3.477882756744e-01       1.134718807419e+03 
       3.597606814539e-01       1.090199708658e+03 
       3.722368519986e-01       1.050440856350e+03 
       3.852598625897e-01       1.012946895659e+03 
       3.988803888968e-01       9.752840319024e+02 
       4.131585827853e-01       9.378278508158e+02 
       4.281665613542e-01       9.024085757348e+02 
       4.439917664577e-01       8.692375561587e+02 
       4.607415854189e-01       8.368697556086e+02 
       4.785498415047e-01       8.047561996416e+02 
       4.975861293656e-01       7.736199436677e+02 
       5.180696089577e-01       7.434030945668e+02 
       5.402900263025e-01       7.133466871747e+02 
       5.646409116525e-01       6.834375927500e+02 
       5.916742382783e-01       6.535252419608e+02 
       6.221949245829e-01       6.230368569688e+02 
       6.574339212312e-01       5.915860988325e+02 
       6.993874264609e-01       5.583529171690e+02 
       7.515348877528e-01       5.221820180760e+02 
       8.204808261238e-01       4.810967230621e+02 
       9.198309510026e-01       4.318041179839e+02 
       1.077254073874e+00       3.699840567298e+02 
       1.327225527361e+00       2.972498575489e+02 
       1.668346862746e+00       2.275243583392e+02 
       2.100278141174e+00       1.677608599314e+02 
       2.644093360171e+00       1.190629350743e+02 
       3.328716322194e+00       8.152860020690e+01 
       4.190605566664e+00       5.412604652480e+01 
       5.275659838680e+00       3.502911224742e+01 
       6.641662234896e+00       2.221335156088e+01 
       8.361357364064e+00       1.386477400388e+01 
       1.052632526271e+01       8.549465775367e+00 
