# Matter power spectrum P(k) at redshift z=2.5
# for k=2.09814e-07 to 10.5263 h/Mpc,
# number of wavenumbers equal to 139
#    1:k (h/Mpc)              2:P (Mpc/h)^3        
       2.098140192535e-07       1.526961322640e-01 
       2.641402005889e-07       1.899844414153e-01 
       3.325328107978e-07       2.363785344889e-01 
       4.186340057686e-07       2.941020387397e-01 
       5.270289881033e-07       3.659215899200e-01 
       6.634901858755e-07       4.552794341713e-01 
       8.352846554746e-07       5.664584121537e-01 
       1.051561078859e-06       7.047872310207e-01 
       1.323836964229e-06       8.768958637547e-01 
       1.666611995340e-06       1.091033316601e+00 
       2.098140192535e-06       1.357462993243e+00 
       2.641402005889e-06       1.688954604556e+00 
       3.325328107978e-06       2.101396196297e+00 
       4.186340057686e-06       2.614555628572e+00 
       5.270289881033e-06       3.253027980907e+00 
       6.634901858755e-06       4.047414282481e+00 
       8.352846554746e-06       5.035788013551e+00 
       1.051561078859e-05       6.265519570785e+00 
       1.323836964229e-05       7.795545987948e+00 
       1.666611995340e-05       9.699194345152e+00 
       2.098140192535e-05       1.206769353628e+01 
       2.641402005889e-05       1.501454138665e+01 
       3.325328107978e-05       1.868093386799e+01 
       4.186340057686e-05       2.324251152625e+01 
       5.270289881033e-05       2.891773646164e+01 
       6.634901858755e-05       3.597828163859e+01 
       8.352846554746e-05       4.476189173547e+01 
       1.051561078859e-04       5.568825598312e+01 
       1.323836964229e-04       6.927850519198e+01 
       1.666611995340e-04       8.617897857217e+01 
       2.098140192535e-04       1.071898420984e+02 
       2.641402005889e-04       1.332988685434e+02 
       3.325328107978e-04       1.657200182020e+02 
       4.186340057686e-04       2.059350970986e+02 
       5.270289881033e-04       2.557343869263e+02 
       6.634901858755e-04       3.172486664647e+02 
       8.352846554746e-04       3.929613738783e+02 
       1.051561078859e-03       4.856881021007e+02 
       1.323836964229e-03       5.985111542571e+02 
       1.666611995340e-03       7.346434129661e+02 
       2.098140192535e-03       8.971403370106e+02 
       2.641402005889e-03       1.088355528046e+03 
       3.325328107978e-03       1.309178112748e+03 
       4.186340057686e-03       1.558043724207e+03 
       5.270289881033e-03       1.828932888319e+03 
       6.634901858755e-03       2.112110103833e+03 
       8.352846554746e-03       2.389319514508e+03 
       1.051561078859e-02       2.634121883399e+03 
       1.323836964229e-02       2.810738387835e+03 
       1.666611995337e-02       2.876104720142e+03 
       2.098140171937e-02       2.788926930263e+03 
       2.641387140479e-02       2.531576220510e+03 
       3.323357968019e-02       2.144291809363e+03 
       4.123299361229e-02       1.759451622861e+03 
       4.790632219269e-02       1.538268755642e+03 
       5.275920367973e-02       1.426035433391e+03 
       5.677246018531e-02       1.353699081031e+03 
       6.036109956609e-02       1.297738984175e+03 
       6.371102674430e-02       1.248296618944e+03 
       6.692101071878e-02       1.200440629039e+03 
       7.005043409568e-02       1.151580123367e+03 
       7.313838240686e-02       1.100509940591e+03 
       7.621244612034e-02       1.046978403120e+03 
       7.929323714499e-02       9.914368029601e+02 
       8.239690320693e-02       9.348468175721e+02 
       8.553661991220e-02       8.785004296175e+02 
       8.872352263282e-02       8.238396473068e+02 
       9.196731331326e-02       7.722807664396e+02 
       9.527666941147e-02       7.250536634188e+02 
       9.865952743487e-02       6.830682667284e+02 
       1.021232841748e-01       6.468166635498e+02 
       1.056749422534e-01       6.163140255770e+02 
       1.093212169616e-01       5.910792629457e+02 
       1.130686155477e-01       5.701583721870e+02 
       1.169234964907e-01       5.521977329973e+02 
       1.208921139910e-01       5.355804267083e+02 
       1.249806514135e-01       5.186338491707e+02 
       1.291952464314e-01       4.998989653382e+02 
       1.335420099682e-01       4.784184271813e+02 
       1.380270405956e-01       4.539689309263e+02 
       1.426564357595e-01       4.271504557100e+02 
       1.474363010126e-01       3.992731965319e+02 
       1.523727583097e-01       3.720473346784e+02 
       1.574719543447e-01       3.471555752355e+02 
       1.627400698563e-01       3.258306442793e+02 
       1.681833308004e-01       3.085497997480e+02 
       1.738080222677e-01       2.949138003013e+02 
       1.796205060114e-01       2.837388809767e+02 
       1.856272424417e-01       2.733709254006e+02 
       1.918348179389e-01       2.621919706401e+02 
       1.982499783411e-01       2.491920933929e+02 
       2.048796694758e-01       2.343661261503e+02 
       2.117310856382e-01       2.186969541985e+02 
       2.188117269762e-01       2.036807986864e+02 
       2.261294668449e-01       1.906216340667e+02 
       2.336926303379e-01       1.800494996380e+02 
       2.415100854242e-01       1.715255492573e+02 
       2.495913484286e-01       1.639103400015e+02 
       2.579467060120e-01       1.559922362284e+02 
       2.665873563799e-01       1.471734606443e+02 
       2.755255732043e-01       1.377787285047e+02 
       2.847748967482e-01       1.287359902515e+02 
       2.943503580080e-01       1.208581078454e+02 
       3.042687434488e-01       1.142737219283e+02 
       3.145489102466e-01       1.084133600668e+02 
       3.252121650992e-01       1.025348814045e+02 
       3.362827239310e-01       9.635471468368e+01 
       3.477882756744e-01       9.021448679518e+01 
       3.597606814539e-01       8.463055578942e+01 
       3.722368519986e-01       7.972708676265e+01 
       3.852598625897e-01       7.516425410890e+01 
       3.988803888968e-01       7.059770506378e+01 
       4.131585827853e-01       6.607624067147e+01 
       4.281665613542e-01       6.186695554664e+01 
       4.439917664577e-01       5.801101393997e+01 
       4.607415854189e-01       5.430083090994e+01 
       4.785498415047e-01       5.065604665178e+01 
       4.975861293656e-01       4.719528546491e+01 
       5.180696089577e-01       4.392336684045e+01 
       5.402900263025e-01       4.073245505331e+01 
       5.646409116525e-01       3.763875612720e+01 
       5.916742382783e-01       3.464566348338e+01 
       6.221949245829e-01       3.169333830027e+01 
       6.574339212312e-01       2.877470170518e+01 
       6.993874264609e-01       2.583724782424e+01 
       7.515348877528e-01       2.283085847996e+01 
       8.204808261238e-01       1.967458870092e+01 
       9.198309510026e-01       1.627373130352e+01 
       1.077254073874e+00       1.262048242969e+01 
       1.327225527361e+00       9.154975567827e+00 
       1.668346862746e+00       6.558079321649e+00 
       2.100278141174e+00       4.761688935905e+00 
       2.644093360171e+00       3.491721803114e+00 
       3.328716322194e+00       2.567814720861e+00 
       4.190605566664e+00       1.879770305443e+00 
       5.275659838680e+00       1.360100706359e+00 
       6.641662234896e+00       9.666420142553e-01 
       8.361357364064e+00       6.716012229005e-01 
       1.052632526271e+01       4.547766923907e-01 
