# Matter power spectrum P(k) at redshift z=2
# for k=2.09814e-07 to 10.5263 h/Mpc,
# number of wavenumbers equal to 139
#    1:k (h/Mpc)              2:P (Mpc/h)^3        
       2.098140192535e-07       2.175301955449e-01 
       2.641402005889e-07       2.706883407048e-01 
       3.325328107978e-07       3.368368128568e-01 
       4.186340057686e-07       4.191500755307e-01 
       5.270289881033e-07       5.215783400961e-01 
       6.634901858755e-07       6.490371357885e-01 
       8.352846554746e-07       8.076432060936e-01 
       1.051561078859e-06       1.005008050195e+00 
       1.323836964229e-06       1.250603197438e+00 
       1.666611995340e-06       1.556214743812e+00 
       2.098140192535e-06       1.936508961640e+00 
       2.641402005889e-06       2.409736124720e+00 
       3.325328107978e-06       2.998606319659e+00 
       4.186340057686e-06       3.731379270613e+00 
       5.270289881033e-06       4.643220449579e+00 
       6.634901858755e-06       5.777888532237e+00 
       8.352846554746e-06       7.189835109636e+00 
       1.051561078859e-05       8.946817283508e+00 
       1.323836964229e-05       1.113314828698e+01 
       1.666611995340e-05       1.385374161208e+01 
       2.098140192535e-05       1.723914174511e+01 
       2.641402005889e-05       2.145178097542e+01 
       3.325328107978e-05       2.669375872292e+01 
       4.186340057686e-05       3.321650914276e+01 
       5.270289881033e-05       4.133280608163e+01 
       6.634901858755e-05       5.143165221561e+01 
       8.352846554746e-05       6.399670938165e+01 
       1.051561078859e-04       7.962904185278e+01 
       1.323836964229e-04       9.907504378853e+01 
       1.666611995340e-04       1.232604635795e+02 
       2.098140192535e-04       1.533313352740e+02 
       2.641402005889e-04       1.907022214904e+02 
       3.325328107978e-04       2.371111937486e+02 
       4.186340057686e-04       2.946790348580e+02 
       5.270289881033e-04       3.659668588266e+02 
       6.634901858755e-04       4.540217979846e+02 
       8.352846554746e-04       5.623960771772e+02 
       1.051561078859e-03       6.951232690961e+02 
       1.323836964229e-03       8.566328445065e+02 
       1.666611995340e-03       1.051552757894e+03 
       2.098140192535e-03       1.284273385939e+03 
       2.641402005889e-03       1.558171129301e+03 
       3.325328107978e-03       1.874541560169e+03 
       4.186340057686e-03       2.231159533216e+03 
       5.270289881033e-03       2.618891907513e+03 
       6.634901858755e-03       3.024630858347e+03 
       8.352846554746e-03       3.421853836532e+03 
       1.051561078859e-02       3.772663429977e+03 
       1.323836964229e-02       4.025770108429e+03 
       1.666611995337e-02       4.119446413081e+03 
       2.098140171937e-02       3.994536543051e+03 
       2.641387140479e-02       3.625882980796e+03 
       3.323357968019e-02       3.071326380515e+03 
       4.123299361229e-02       2.520539736973e+03 
       4.790632219269e-02       2.204052878977e+03 
       5.275920367973e-02       2.043409835677e+03 
       5.677246018531e-02       1.939807582975e+03 
       6.036109956609e-02       1.859614047858e+03 
       6.371102674430e-02       1.788745789883e+03 
       6.692101071878e-02       1.720168099724e+03 
       7.005043409568e-02       1.650192716043e+03 
       7.313838240686e-02       1.577109946925e+03 
       7.621244612034e-02       1.500568561136e+03 
       7.929323714499e-02       1.421216020934e+03 
       8.239690320693e-02       1.340422510055e+03 
       8.553661991220e-02       1.260023775605e+03 
       8.872352263282e-02       1.182064790425e+03 
       9.196731331326e-02       1.108550408619e+03 
       9.527666941147e-02       1.041217965123e+03 
       9.865952743487e-02       9.813486336096e+02 
       1.021232841748e-01       9.296293894386e+02 
       1.056749422534e-01       8.860703208407e+02 
       1.093212169616e-01       8.499786677318e+02 
       1.130686155477e-01       8.199937781251e+02 
       1.169234964907e-01       7.941934325110e+02 
       1.208921139910e-01       7.702892575338e+02 
       1.249806514135e-01       7.459220137368e+02 
       1.291952464314e-01       7.190416432302e+02 
       1.335420099682e-01       6.883111033608e+02 
       1.380270405956e-01       6.534289270285e+02 
       1.426564357595e-01       6.152494761552e+02 
       1.474363010126e-01       5.756198536542e+02 
       1.523727583097e-01       5.369424048740e+02 
       1.574719543447e-01       5.015748613243e+02 
       1.627400698563e-01       4.712387039612e+02 
       1.681833308004e-01       4.465924611985e+02 
       1.738080222677e-01       4.270651090084e+02 
       1.796205060114e-01       4.109900540506e+02 
       1.856272424417e-01       3.960507544939e+02 
       1.918348179389e-01       3.799920109696e+02 
       1.982499783411e-01       3.614154167126e+02 
       2.048796694758e-01       3.403242451126e+02 
       2.117310856382e-01       3.180919449360e+02 
       2.188117269762e-01       2.967982145411e+02 
       2.261294668449e-01       2.782491027371e+02 
       2.336926303379e-01       2.631719671350e+02 
       2.415100854242e-01       2.509496688993e+02 
       2.495913484286e-01       2.399992416057e+02 
       2.579467060120e-01       2.286464539228e+02 
       2.665873563799e-01       2.160714642197e+02 
       2.755255732043e-01       2.027266405814e+02 
       2.847748967482e-01       1.898902808735e+02 
       2.943503580080e-01       1.786768776921e+02 
       3.042687434488e-01       1.692575400688e+02 
       3.145489102466e-01       1.608464535199e+02 
       3.252121650992e-01       1.524262304271e+02 
       3.362827239310e-01       1.436110142059e+02 
       3.477882756744e-01       1.348684724266e+02 
       3.597606814539e-01       1.269011493154e+02 
       3.722368519986e-01       1.198747271105e+02 
       3.852598625897e-01       1.133244742610e+02 
       3.988803888968e-01       1.067824452223e+02 
       4.131585827853e-01       1.003148583199e+02 
       4.281665613542e-01       9.428172713831e+01 
       4.439917664577e-01       8.873623414562e+01 
       4.607415854189e-01       8.339673768584e+01 
       4.785498415047e-01       7.815410685010e+01 
       4.975861293656e-01       7.316598709426e+01 
       5.180696089577e-01       6.843642564213e+01 
       5.402900263025e-01       6.381893587885e+01 
       5.646409116525e-01       5.933244857299e+01 
       5.916742382783e-01       5.497775084182e+01 
       6.221949245829e-01       5.067069081492e+01 
       6.574339212312e-01       4.639518817435e+01 
       6.993874264609e-01       4.207202795021e+01 
       7.515348877528e-01       3.761958965097e+01 
       8.204808261238e-01       3.290569336260e+01 
       9.198309510026e-01       2.776341468638e+01 
       1.077254073874e+00       2.212922410993e+01 
       1.327225527361e+00       1.660997683677e+01 
       1.668346862746e+00       1.228012430034e+01 
       2.100278141174e+00       9.121805552867e+00 
       2.644093360171e+00       6.770177125874e+00 
       3.328716322194e+00       4.983531582141e+00 
       4.190605566664e+00       3.613876612829e+00 
       5.275659838680e+00       2.567536905682e+00 
       6.641662234896e+00       1.780050632818e+00 
       8.361357364064e+00       1.201320256981e+00 
       1.052632526271e+01       7.884287800440e-01 
