# Matter power spectrum P(k) at redshift z=0.5
# for k=2.09814e-07 to 10.5263 h/Mpc,
# number of wavenumbers equal to 139
#    1:k (h/Mpc)              2:P (Mpc/h)^3        
       2.098140192535e-07       7.126834458221e-01 
       2.641402005889e-07       8.845179910286e-01 
       3.325328107978e-07       1.097783427906e+00 
       4.186340057686e-07       1.362469125738e+00 
       5.270289881033e-07       1.690972982351e+00 
       6.634901858755e-07       2.098682141777e+00 
       8.352846554746e-07       2.604693728603e+00 
       1.051561078859e-06       3.232709356355e+00 
       1.323836964229e-06       4.012145308618e+00 
       1.666611995340e-06       4.979510391883e+00 
       2.098140192535e-06       6.180115994137e+00 
       2.641402005889e-06       7.670198441231e+00 
       3.325328107978e-06       9.519553045702e+00 
       4.186340057686e-06       1.181480320073e+01 
       5.270289881033e-06       1.466345757493e+01 
       6.634901858755e-06       1.819894533920e+01 
       8.352846554746e-06       2.258686503943e+01 
       1.051561078859e-05       2.803273934922e+01 
       1.323836964229e-05       3.479163804925e+01 
       1.666611995340e-05       4.318011819479e+01 
       2.098140192535e-05       5.359103728020e+01 
       2.641402005889e-05       6.651192640501e+01 
       3.325328107978e-05       8.254777062302e+01 
       4.186340057686e-05       1.024492371198e+02 
       5.270289881033e-05       1.271476216828e+02 
       6.634901858755e-05       1.577980489720e+02 
       8.352846554746e-05       1.958327519644e+02 
       1.051561078859e-04       2.430265404603e+02 
       1.323836964229e-04       3.015767786920e+02 
       1.666611995340e-04       3.742001873688e+02 
       2.098140192535e-04       4.642483031449e+02 
       2.641402005889e-04       5.758420257843e+02 
       3.325328107978e-04       7.140227276495e+02 
       4.186340057686e-04       8.849122715681e+02 
       5.270289881033e-04       1.095867059717e+03 
       6.634901858755e-04       1.355603605828e+03 
       8.352846554746e-04       1.674266197350e+03 
       1.051561078859e-03       2.063387711750e+03 
       1.323836964229e-03       2.535621886497e+03 
       1.666611995340e-03       3.104022876686e+03 
       2.098140192535e-03       3.780706073042e+03 
       2.641402005889e-03       4.574727241837e+03 
       3.325328107978e-03       5.488940081111e+03 
       4.186340057686e-03       6.515883080980e+03 
       5.270289881033e-03       7.618985467713e+03 
       6.634901858755e-03       8.773582464984e+03 
       8.352846554746e-03       9.896003772375e+03 
       1.051561078859e-02       1.087677371766e+04 
       1.323836964229e-02       1.156921600642e+04 
       1.666611995337e-02       1.179874110119e+04 
       2.098140171937e-02       1.140095500433e+04 
       2.641387140479e-02       1.031165286623e+04 
       3.323357968019e-02       8.704280570503e+03 
       4.123299361229e-02       7.122771955068e+03 
       4.790632219269e-02       6.217287530386e+03 
       5.275920367973e-02       5.757435309756e+03 
       5.677246018531e-02       5.460422664236e+03 
       6.036109956609e-02       5.230466985349e+03 
       6.371102674430e-02       5.027656105857e+03 
       6.692101071878e-02       4.832167440906e+03 
       7.005043409568e-02       4.633672185644e+03 
       7.313838240686e-02       4.427411055228e+03 
       7.621244612034e-02       4.212410445364e+03 
       7.929323714499e-02       3.990448498964e+03 
       8.239690320693e-02       3.765270636162e+03 
       8.553661991220e-02       3.541869134583e+03 
       8.872352263282e-02       3.325775514779e+03 
       9.196731331326e-02       3.122378970313e+03 
       9.527666941147e-02       2.936311394426e+03 
       9.865952743487e-02       2.770942320225e+03 
       1.021232841748e-01       2.628014594170e+03 
       1.056749422534e-01       2.507433719772e+03 
       1.093212169616e-01       2.407213687420e+03 
       1.130686155477e-01       2.323588885380e+03 
       1.169234964907e-01       2.251319209503e+03 
       1.208921139910e-01       2.184230720136e+03 
       1.249806514135e-01       2.116015651504e+03 
       1.291952464314e-01       2.041244849136e+03 
       1.335420099682e-01       1.956428241948e+03 
       1.380270405956e-01       1.860844849361e+03 
       1.426564357595e-01       1.756829215572e+03 
       1.474363010126e-01       1.649309319460e+03 
       1.523727583097e-01       1.544630385391e+03 
       1.574719543447e-01       1.448966453090e+03 
       1.627400698563e-01       1.366771590901e+03 
       1.681833308004e-01       1.299681194191e+03 
       1.738080222677e-01       1.246108395620e+03 
       1.796205060114e-01       1.201632562919e+03 
       1.856272424417e-01       1.160193136353e+03 
       1.918348179389e-01       1.115951666237e+03 
       1.982499783411e-01       1.065338690088e+03 
       2.048796694758e-01       1.008423161308e+03 
       2.117310856382e-01       9.487829863745e+02 
       2.188117269762e-01       8.917610873253e+02 
       2.261294668449e-01       8.419428695876e+02 
       2.336926303379e-01       8.011197375154e+02 
       2.415100854242e-01       7.676559693665e+02 
       2.495913484286e-01       7.374977009439e+02 
       2.579467060120e-01       7.064123114783e+02 
       2.665873563799e-01       6.723629839681e+02 
       2.755255732043e-01       6.365169077519e+02 
       2.847748967482e-01       6.020796182444e+02 
       2.943503580080e-01       5.718036372938e+02 
       3.042687434488e-01       5.460705375707e+02 
       3.145489102466e-01       5.229026660438e+02 
       3.252121650992e-01       4.997862758879e+02 
       3.362827239310e-01       4.757873840895e+02 
       3.477882756744e-01       4.520574364371e+02 
       3.597606814539e-01       4.302926416682e+02 
       3.722368519986e-01       4.108668366006e+02 
       3.852598625897e-01       3.926401759145e+02 
       3.988803888968e-01       3.744877162086e+02 
       4.131585827853e-01       3.565679501680e+02 
       4.281665613542e-01       3.397224012194e+02 
       4.439917664577e-01       3.240555177908e+02 
       4.607415854189e-01       3.088932078095e+02 
       4.785498415047e-01       2.939726886114e+02 
       4.975861293656e-01       2.796412130084e+02 
       5.180696089577e-01       2.658842091734e+02 
       5.402900263025e-01       2.523460027808e+02 
       5.646409116525e-01       2.390395158462e+02 
       5.916742382783e-01       2.259243945237e+02 
       6.221949245829e-01       2.127603697123e+02 
       6.574339212312e-01       1.994309747207e+02 
       6.993874264609e-01       1.856423952132e+02 
       7.515348877528e-01       1.710195372323e+02 
       8.204808261238e-01       1.549382104475e+02 
       9.198309510026e-01       1.364444894887e+02 
       1.077254073874e+00       1.145463362705e+02 
       1.327225527361e+00       9.059500018930e+01 
       1.668346862746e+00       6.923548210396e+01 
       2.100278141174e+00       5.179423835235e+01 
       2.644093360171e+00       3.776934473247e+01 
       3.328716322194e+00       2.673477625082e+01 
       4.190605566664e+00       1.833007698188e+01 
       5.275659838680e+00       1.218099137701e+01 
       6.641662234896e+00       7.870170345093e+00 
       8.361357364064e+00       4.964949746218e+00 
       1.052632526271e+01       3.071645578947e+00 
