# Matter power spectrum P(k) at redshift z=0
# for k=2.09814e-07 to 10.5263 h/Mpc,
# number of wavenumbers equal to 139
#    1:k (h/Mpc)              2:P (Mpc/h)^3        
       2.098140192535e-07       1.036089758562e+00 
       2.641402005889e-07       1.287500423478e+00 
       3.325328107978e-07       1.599916731272e+00 
       4.186340057686e-07       1.988141905696e+00 
       5.270289881033e-07       2.470571221839e+00 
       6.634901858755e-07       3.070063628487e+00 
       8.352846554746e-07       3.815024872533e+00 
       1.051561078859e-06       4.740753445107e+00 
       1.323836964229e-06       5.891113123574e+00 
       1.666611995340e-06       7.320611356314e+00 
       2.098140192535e-06       9.096981963497e+00 
       2.641402005889e-06       1.130439451819e+01 
       3.325328107978e-06       1.404744245251e+01 
       4.186340057686e-06       1.745609881279e+01 
       5.270289881033e-06       2.169187438020e+01 
       6.634901858755e-06       2.695546976911e+01 
       8.352846554746e-06       3.349628371218e+01 
       1.051561078859e-05       4.162422733453e+01 
       1.323836964229e-05       5.172440280027e+01 
       1.666611995340e-05       6.427533903661e+01 
       2.098140192535e-05       7.987164308789e+01 
       2.641402005889e-05       9.925212952077e+01 
       3.325328107978e-05       1.233347393875e+02 
       4.186340057686e-05       1.532598613209e+02 
       5.270289881033e-05       1.904440250287e+02 
       6.634901858755e-05       2.366463498340e+02 
       8.352846554746e-05       2.940505812517e+02 
       1.051561078859e-04       3.653659891510e+02 
       1.323836964229e-04       4.539507239702e+02 
       1.666611995340e-04       5.639612167015e+02 
       2.098140192535e-04       7.005304714996e+02 
       2.641402005889e-04       8.699760084976e+02 
       3.325328107978e-04       1.080033960203e+03 
       4.186340057686e-04       1.340108831250e+03 
       5.270289881033e-04       1.661519259685e+03 
       6.634901858755e-04       2.057710296558e+03 
       8.352846554746e-04       2.544386782662e+03 
       1.051561078859e-03       3.139468675834e+03 
       1.323836964229e-03       3.862650873904e+03 
       1.666611995340e-03       4.734301229083e+03 
       2.098140192535e-03       5.773478658838e+03 
       2.641402005889e-03       6.994645006855e+03 
       3.325328107978e-03       8.402843801383e+03 
       4.186340057686e-03       9.987329470703e+03 
       5.270289881033e-03       1.168090132631e+04 
       6.634901858755e-03       1.346423973542e+04 
       8.352846554746e-03       1.520062187654e+04 
       1.051561078859e-02       1.672100058994e+04 
       1.323836964229e-02       1.779848442931e+04 
       1.666611995337e-02       1.816266433236e+04 
       2.098140171937e-02       1.755855951060e+04 
       2.641387140479e-02       1.588581489162e+04 
       3.323357968019e-02       1.341139957498e+04 
       4.123299361229e-02       1.097521349778e+04 
       4.790632219269e-02       9.581338324338e+03 
       5.275920367973e-02       8.874721920729e+03 
       5.677246018531e-02       8.419345833249e+03 
       6.036109956609e-02       8.067504537506e+03 
       6.371102674430e-02       7.757609768707e+03 
       6.692101071878e-02       7.459031366807e+03 
       7.005043409568e-02       7.155770974633e+03 
       7.313838240686e-02       6.840423902028e+03 
       7.621244612034e-02       6.511441418763e+03 
       7.929323714499e-02       6.171546271482e+03 
       8.239690320693e-02       5.826527319360e+03 
       8.553661991220e-02       5.484125977632e+03 
       8.872352263282e-02       5.152936506202e+03 
       9.196731331326e-02       4.841342995231e+03 
       9.527666941147e-02       4.556559495134e+03 
       9.865952743487e-02       4.303842856196e+03 
       1.021232841748e-01       4.085926792434e+03 
       1.056749422534e-01       3.902695900860e+03 
       1.093212169616e-01       3.751100697073e+03 
       1.130686155477e-01       3.625324921409e+03 
       1.169234964907e-01       3.517245995525e+03 
       1.208921139910e-01       3.417257307687e+03 
       1.249806514135e-01       3.315498428757e+03 
       1.291952464314e-01       3.203432268382e+03 
       1.335420099682e-01       3.075521023388e+03 
       1.380270405956e-01       2.930560605825e+03 
       1.426564357595e-01       2.772164406233e+03 
       1.474363010126e-01       2.608053208568e+03 
       1.523727583097e-01       2.448198806943e+03 
       1.574719543447e-01       2.302309868572e+03 
       1.627400698563e-01       2.177391201592e+03 
       1.681833308004e-01       2.076026606609e+03 
       1.738080222677e-01       1.995753065058e+03 
       1.796205060114e-01       1.929657111719e+03 
       1.856272424417e-01       1.868216516202e+03 
       1.918348179389e-01       1.802206941968e+03 
       1.982499783411e-01       1.725948229368e+03 
       2.048796694758e-01       1.639517704891e+03 
       2.117310856382e-01       1.548575179448e+03 
       2.188117269762e-01       1.461586735955e+03 
       2.261294668449e-01       1.385807424756e+03 
       2.336926303379e-01       1.324066418232e+03 
       2.415100854242e-01       1.273785756324e+03 
       2.495913484286e-01       1.228568898188e+03 
       2.579467060120e-01       1.181722206995e+03 
       2.665873563799e-01       1.130019879778e+03 
       2.755255732043e-01       1.075320070077e+03 
       2.847748967482e-01       1.022708388355e+03 
       2.943503580080e-01       9.765345394377e+02 
       3.042687434488e-01       9.373917283506e+02 
       3.145489102466e-01       9.021576147492e+02 
       3.252121650992e-01       8.668748883961e+02 
       3.362827239310e-01       8.300847930668e+02 
       3.477882756744e-01       7.936125159832e+02 
       3.597606814539e-01       7.601226256443e+02 
       3.722368519986e-01       7.301907396405e+02 
       3.852598625897e-01       7.020292522366e+02 
       3.988803888968e-01       6.738888576470e+02 
       4.131585827853e-01       6.460249265883e+02 
       4.281665613542e-01       6.197411292696e+02 
       4.439917664577e-01       5.951882332863e+02 
       4.607415854189e-01       5.713226029942e+02 
       4.785498415047e-01       5.477407808297e+02 
       4.975861293656e-01       5.249643602809e+02 
       5.180696089577e-01       5.029549560001e+02 
       5.402900263025e-01       4.811606200715e+02 
       5.646409116525e-01       4.595782982572e+02 
       5.916742382783e-01       4.381120789476e+02 
       6.221949245829e-01       4.163585404570e+02 
       6.574339212312e-01       3.940691461793e+02 
       6.993874264609e-01       3.706940514591e+02 
       7.515348877528e-01       3.454810901137e+02 
       8.204808261238e-01       3.171555866917e+02 
       9.198309510026e-01       2.836475508571e+02 
       1.077254073874e+00       2.424042569578e+02 
       1.327225527361e+00       1.949906160288e+02 
       1.668346862746e+00       1.504865550530e+02 
       2.100278141174e+00       1.126753798550e+02 
       2.644093360171e+00       8.159135767580e+01 
       3.328716322194e+00       5.707381519218e+01 
       4.190605566664e+00       3.865371849268e+01 
       5.275659838680e+00       2.545147853363e+01 
       6.641662234896e+00       1.636876174536e+01 
       8.361357364064e+00       1.032853496518e+01 
       1.052632526271e+01       6.419677627240e+00 
