# Matter power spectrum P(k) at redshift z=2
# for k=2.09814e-07 to 10.5263 h/Mpc,
# number of wavenumbers equal to 139
#    1:k (h/Mpc)              2:P (Mpc/h)^3        
       2.098140192535e-07       2.274582496439e-01 
       2.641402005889e-07       2.832381130739e-01 
       3.325328107978e-07       3.526969401844e-01 
       4.186340057686e-07       4.391892398146e-01 
       5.270289881033e-07       5.468921510221e-01 
       6.634901858755e-07       6.810071771559e-01 
       8.352846554746e-07       8.480113923397e-01 
       1.051561078859e-06       1.055970250313e+00 
       1.323836964229e-06       1.314927103655e+00 
       1.666611995340e-06       1.637388244661e+00 
       2.098140192535e-06       2.038926890756e+00 
       2.641402005889e-06       2.538935282455e+00 
       3.325328107978e-06       3.161561210229e+00 
       4.186340057686e-06       3.936874196619e+00 
       5.270289881033e-06       4.902317624099e+00 
       6.634901858755e-06       6.104516918101e+00 
       8.352846554746e-06       7.601531036250e+00 
       1.051561078859e-05       9.465655853429e+00 
       1.323836964229e-05       1.178691458017e+01 
       1.666611995340e-05       1.467740323502e+01 
       2.098140192535e-05       1.827669999524e+01 
       2.641402005889e-05       2.275859758176e+01 
       3.325328107978e-05       2.833947974622e+01 
       4.186340057686e-05       3.528873832160e+01 
       5.270289881033e-05       4.394171804346e+01 
       6.634901858755e-05       5.471578301209e+01 
       8.352846554746e-05       6.813021921424e+01 
       1.051561078859e-04       8.483081366413e+01 
       1.323836964229e-04       1.056200613725e+02 
       1.666611995340e-04       1.314940008075e+02 
       2.098140192535e-04       1.636865745125e+02 
       2.641402005889e-04       2.037219829265e+02 
       3.325328107978e-04       2.534744559454e+02 
       4.186340057686e-04       3.152327867736e+02 
       5.270289881033e-04       3.917634368152e+02 
       6.634901858755e-04       4.863611165065e+02 
       8.352846554746e-04       6.028710442225e+02 
       1.051561078859e-03       7.456653615051e+02 
       1.323836964229e-03       9.195532091915e+02 
       1.666611995340e-03       1.129570155443e+03 
       2.098140192535e-03       1.380510217458e+03 
       2.641402005889e-03       1.676089848757e+03 
       3.325328107978e-03       2.017795811011e+03 
       4.186340057686e-03       2.403326454940e+03 
       5.270289881033e-03       2.822746621589e+03 
       6.634901858755e-03       3.262268035885e+03 
       8.352846554746e-03       3.693174117997e+03 
       1.051561078859e-02       4.074505996235e+03 
       1.323836964229e-02       4.350719254687e+03 
       1.666611995337e-02       4.454835321136e+03 
       2.098140171937e-02       4.322496321385e+03 
       2.641387140479e-02       3.926028008065e+03 
       3.323357968019e-02       3.327653071112e+03 
       4.123299361229e-02       2.732561118078e+03 
       4.790632219269e-02       2.390467070612e+03 
       5.275920367973e-02       2.216811133886e+03 
       5.677246018531e-02       2.104802536719e+03 
       6.036109956609e-02       2.018077803176e+03 
       6.371102674430e-02       1.941407815829e+03 
       6.692101071878e-02       1.867186208401e+03 
       7.005043409568e-02       1.791426733373e+03 
       7.313838240686e-02       1.712284061986e+03 
       7.621244612034e-02       1.629382899729e+03 
       7.929323714499e-02       1.543428522905e+03 
       8.239690320693e-02       1.455907925379e+03 
       8.553661991220e-02       1.368811363893e+03 
       8.872352263282e-02       1.284354858599e+03 
       9.196731331326e-02       1.204710306471e+03 
       9.527666941147e-02       1.131759344248e+03 
       9.865952743487e-02       1.066889130800e+03 
       1.021232841748e-01       1.010842886001e+03 
       1.056749422534e-01       9.636303868425e+02 
       1.093212169616e-01       9.245000155719e+02 
       1.130686155477e-01       8.919769864878e+02 
       1.169234964907e-01       8.639790759739e+02 
       1.208921139910e-01       8.380289017438e+02 
       1.249806514135e-01       8.115741166197e+02 
       1.291952464314e-01       7.823987713997e+02 
       1.335420099682e-01       7.490596207531e+02 
       1.380270405956e-01       7.112338412330e+02 
       1.426564357595e-01       6.698477864574e+02 
       1.474363010126e-01       6.268997995446e+02 
       1.523727583097e-01       5.849870576407e+02 
       1.574719543447e-01       5.466573877731e+02 
       1.627400698563e-01       5.137700342593e+02 
       1.681833308004e-01       4.870346611016e+02 
       1.738080222677e-01       4.658317895355e+02 
       1.796205060114e-01       4.483587483118e+02 
       1.856272424417e-01       4.321126910295e+02 
       1.918348179389e-01       4.146597555798e+02 
       1.982499783411e-01       3.944931515295e+02 
       2.048796694758e-01       3.716191002751e+02 
       2.117310856382e-01       3.475207975713e+02 
       2.188117269762e-01       3.244414755554e+02 
       2.261294668449e-01       3.043278018337e+02 
       2.336926303379e-01       2.879622573803e+02 
       2.415100854242e-01       2.746775064270e+02 
       2.495913484286e-01       2.627662866180e+02 
       2.579467060120e-01       2.504251821970e+02 
       2.665873563799e-01       2.367726964337e+02 
       2.755255732043e-01       2.222970774601e+02 
       2.847748967482e-01       2.083743460044e+02 
       2.943503580080e-01       1.962029305999e+02 
       3.042687434488e-01       1.859655524734e+02 
       3.145489102466e-01       1.768160066417e+02 
       3.252121650992e-01       1.676603923695e+02 
       3.362827239310e-01       1.580845868911e+02 
       3.477882756744e-01       1.485912836154e+02 
       3.597606814539e-01       1.399345399414e+02 
       3.722368519986e-01       1.322913615519e+02 
       3.852598625897e-01       1.251623386047e+02 
       3.988803888968e-01       1.180453671351e+02 
       4.131585827853e-01       1.110114680361e+02 
       4.281665613542e-01       1.044461587089e+02 
       4.439917664577e-01       9.840576907086e+01 
       4.607415854189e-01       9.258818694730e+01 
       4.785498415047e-01       8.687629767277e+01 
       4.975861293656e-01       8.143827901620e+01 
       5.180696089577e-01       7.627775242038e+01 
       5.402900263025e-01       7.123746347141e+01 
       5.646409116525e-01       6.633679448006e+01 
       5.916742382783e-01       6.157541730068e+01 
       6.221949245829e-01       5.686205152815e+01 
       6.574339212312e-01       5.217738266950e+01 
       6.993874264609e-01       4.743378064413e+01 
       7.515348877528e-01       4.253917355223e+01 
       8.204808261238e-01       3.734424758956e+01 
       9.198309510026e-01       3.165684974966e+01 
       1.077254073874e+00       2.539029778004e+01 
       1.327225527361e+00       1.919720722147e+01 
       1.668346862746e+00       1.428048759393e+01 
       2.100278141174e+00       1.064796508990e+01 
       2.644093360171e+00       7.912565131753e+00 
       3.328716322194e+00       5.817344351181e+00 
       4.190605566664e+00       4.204521131765e+00 
       5.275659838680e+00       2.972372179604e+00 
       6.641662234896e+00       2.048109519890e+00 
       8.361357364064e+00       1.372690524717e+00 
       1.052632526271e+01       8.943598808388e-01 
