# Matter power spectrum P(k) at redshift z=1
# for k=2.09814e-07 to 10.5263 h/Mpc,
# number of wavenumbers equal to 139
#    1:k (h/Mpc)              2:P (Mpc/h)^3        
       2.098140192535e-07       5.715727049924e-01 
       2.641402005889e-07       7.103648781596e-01 
       3.325328107978e-07       8.828592680080e-01 
       4.186340057686e-07       1.097239616833e+00 
       5.270289881033e-07       1.363676884301e+00 
       6.634901858755e-07       1.694811792842e+00 
       8.352846554746e-07       2.106354547874e+00 
       1.051561078859e-06       2.617830183357e+00 
       1.323836964229e-06       3.253504894962e+00 
       1.666611995340e-06       4.043537307849e+00 
       2.098140192535e-06       5.025409295170e+00 
       2.641402005889e-06       6.245704225121e+00 
       3.325328107978e-06       7.762316989160e+00 
       4.186340057686e-06       9.647200644890e+00 
       5.270289881033e-06       1.198977992468e+01 
       6.634901858755e-06       1.490119348035e+01 
       8.352846554746e-06       1.851956594288e+01 
       1.051561078859e-05       2.301655955383e+01 
       1.323836964229e-05       2.860551551126e+01 
       1.666611995340e-05       3.555156987459e+01 
       2.098140192535e-05       4.418422122893e+01 
       2.641402005889e-05       5.491294094559e+01 
       3.325328107978e-05       6.824655602772e+01 
       4.186340057686e-05       8.481730319660e+01 
       5.270289881033e-05       1.054106543176e+02 
       6.634901858755e-05       1.310022474533e+02 
       8.352846554746e-05       1.628035175161e+02 
       1.051561078859e-04       2.023178824834e+02 
       1.323836964229e-04       2.514095503632e+02 
       1.666611995340e-04       3.123870534804e+02 
       2.098140192535e-04       3.881032680568e+02 
       2.641402005889e-04       4.820725473455e+02 
       3.325328107978e-04       5.986030798186e+02 
       4.186340057686e-04       7.429379535070e+02 
       5.270289881033e-04       9.213913377497e+02 
       6.634901858755e-04       1.141457924239e+03 
       8.352846554746e-04       1.411867420152e+03 
       1.051561078859e-03       1.742548396181e+03 
       1.323836964229e-03       2.144424248313e+03 
       1.666611995340e-03       2.628848163844e+03 
       2.098140192535e-03       3.206442719174e+03 
       2.641402005889e-03       3.885277829599e+03 
       3.325328107978e-03       4.668200821284e+03 
       4.186340057686e-03       5.549284745146e+03 
       5.270289881033e-03       6.509093864170e+03 
       6.634901858755e-03       7.509154203531e+03 
       8.352846554746e-03       8.486133784895e+03 
       1.051561078859e-02       9.346336256131e+03 
       1.323836964229e-02       9.963278235253e+03 
       1.666611995337e-02       1.018505769204e+04 
       2.098140171937e-02       9.866455170223e+03 
       2.641387140479e-02       8.946307802116e+03 
       3.323357968019e-02       7.568049934639e+03 
       4.123299361229e-02       6.200327693908e+03 
       4.790632219269e-02       5.413626497581e+03 
       5.275920367973e-02       5.013628680905e+03 
       5.677246018531e-02       4.755313464238e+03 
       6.036109956609e-02       4.555249164932e+03 
       6.371102674430e-02       4.378492085979e+03 
       6.692101071878e-02       4.207581048566e+03 
       7.005043409568e-02       4.033352442711e+03 
       7.313838240686e-02       3.851546129684e+03 
       7.621244612034e-02       3.661267894020e+03 
       7.929323714499e-02       3.464098058971e+03 
       8.239690320693e-02       3.263408829445e+03 
       8.553661991220e-02       3.063728363334e+03 
       8.872352263282e-02       2.870107415066e+03 
       9.196731331326e-02       2.687502443882e+03 
       9.527666941147e-02       2.520213073470e+03 
       9.865952743487e-02       2.371414741618e+03 
       1.021232841748e-01       2.242815685862e+03 
       1.056749422534e-01       2.134450657706e+03 
       1.093212169616e-01       2.044614703165e+03 
       1.130686155477e-01       1.969947156672e+03 
       1.169234964907e-01       1.905693014162e+03 
       1.208921139910e-01       1.846185270009e+03 
       1.249806514135e-01       1.785575890858e+03 
       1.291952464314e-01       1.718777698019e+03 
       1.335420099682e-01       1.642466941465e+03 
       1.380270405956e-01       1.555885243300e+03 
       1.426564357595e-01       1.461141207719e+03 
       1.474363010126e-01       1.362809682156e+03 
       1.523727583097e-01       1.266850138470e+03 
       1.574719543447e-01       1.179119896455e+03 
       1.627400698563e-01       1.103904174216e+03 
       1.681833308004e-01       1.042851908415e+03 
       1.738080222677e-01       9.945555045489e+02 
       1.796205060114e-01       9.548781277846e+02 
       1.856272424417e-01       9.180583899277e+02 
       1.918348179389e-01       8.784797866249e+02 
       1.982499783411e-01       8.326524727940e+02 
       2.048796694758e-01       7.805739563384e+02 
       2.117310856382e-01       7.256569352302e+02 
       2.188117269762e-01       6.730823631255e+02 
       2.261294668449e-01       6.273597311246e+02 
       2.336926303379e-01       5.903143375519e+02 
       2.415100854242e-01       5.604142493575e+02 
       2.495913484286e-01       5.337084188027e+02 
       2.579467060120e-01       5.060099013455e+02 
       2.665873563799e-01       4.752623078609e+02 
       2.755255732043e-01       4.425905907103e+02 
       2.847748967482e-01       4.111923504453e+02 
       2.943503580080e-01       3.838636965206e+02 
       3.042687434488e-01       3.610405890973e+02 
       3.145489102466e-01       3.407556996964e+02 
       3.252121650992e-01       3.204542635357e+02 
       3.362827239310e-01       2.991635126078e+02 
       3.477882756744e-01       2.780569337478e+02 
       3.597606814539e-01       2.589044306027e+02 
       3.722368519986e-01       2.421281406007e+02 
       3.852598625897e-01       2.265596534931e+02 
       3.988803888968e-01       2.110184148148e+02 
       4.131585827853e-01       1.956715956274e+02 
       4.281665613542e-01       1.814322385878e+02 
       4.439917664577e-01       1.684397386793e+02 
       4.607415854189e-01       1.559840347790e+02 
       4.785498415047e-01       1.437913492491e+02 
       4.975861293656e-01       1.322676964721e+02 
       5.180696089577e-01       1.214310508687e+02 
       5.402900263025e-01       1.109165197701e+02 
       5.646409116525e-01       1.007839260859e+02 
       5.916742382783e-01       9.105161981913e+01 
       6.221949245829e-01       8.152622746030e+01 
       6.574339212312e-01       7.219987825189e+01 
       6.993874264609e-01       6.291998465683e+01 
       7.515348877528e-01       5.356008650785e+01 
       8.204808261238e-01       4.392308688247e+01 
       9.198309510026e-01       3.382882133857e+01 
       1.077254073874e+00       2.346631380477e+01 
       1.327225527361e+00       1.435909627646e+01 
       1.668346862746e+00       8.300978870218e+00 
       2.100278141174e+00       4.738090505176e+00 
       2.644093360171e+00       2.681955155279e+00 
       3.328716322194e+00       1.506735006967e+00 
       4.190605566664e+00       8.407372272891e-01 
       5.275659838680e+00       4.662147554032e-01 
       6.641662234896e+00       2.570676060651e-01 
       8.361357364064e+00       1.410097985027e-01 
       1.052632526271e+01       7.697894375605e-02 
