# Matter power spectrum P(k) at redshift z=2
# for k=2.09814e-07 to 10.5263 h/Mpc,
# number of wavenumbers equal to 139
#    1:k (h/Mpc)              2:P (Mpc/h)^3        
       2.098140192535e-07       1.160644132620e-01 
       2.641402005889e-07       1.453881732816e-01 
       3.325328107978e-07       1.821206029356e-01 
       4.186340057686e-07       2.281335080576e-01 
       5.270289881033e-07       2.857716075764e-01 
       6.634901858755e-07       3.579720150767e-01 
       8.352846554746e-07       4.484139079419e-01 
       1.051561078859e-06       5.617060098239e-01 
       1.323836964229e-06       7.036214406237e-01 
       1.666611995340e-06       8.813919011430e-01 
       2.098140192535e-06       1.104076182256e+00 
       2.641402005889e-06       1.383021776202e+00 
       3.325328107978e-06       1.732443109262e+00 
       4.186340057686e-06       2.170145859342e+00 
       5.270289881033e-06       2.718434251133e+00 
       6.634901858755e-06       3.405247550004e+00 
       8.352846554746e-06       4.265583624439e+00 
       1.051561078859e-05       5.343282033358e+00 
       1.323836964229e-05       6.693257351456e+00 
       1.666611995340e-05       8.384296212827e+00 
       2.098140192535e-05       1.050255998283e+01 
       2.641402005889e-05       1.315597029287e+01 
       3.325328107978e-05       1.647969845411e+01 
       4.186340057686e-05       2.064303356729e+01 
       5.270289881033e-05       2.585796959904e+01 
       6.634901858755e-05       3.238992974793e+01 
       8.352846554746e-05       4.057113652038e+01 
       1.051561078859e-04       5.081723370865e+01 
       1.323836964229e-04       6.364785953071e+01 
       1.666611995340e-04       7.971193042359e+01 
       2.098140192535e-04       9.981836402859e+01 
       2.641402005889e-04       1.249727372516e+02 
       3.325328107978e-04       1.564197498517e+02 
       4.186340057686e-04       1.956900610748e+02 
       5.270289881033e-04       2.446477851856e+02 
       6.634901858755e-04       3.055316702547e+02 
       8.352846554746e-04       3.809796800550e+02 
       1.051561078859e-03       4.740251198248e+02 
       1.323836964229e-03       5.880499966777e+02 
       1.666611995340e-03       7.266588994406e+02 
       2.098140192535e-03       8.933816189558e+02 
       2.641402005889e-03       1.091125444047e+03 
       3.325328107978e-03       1.321400916085e+03 
       4.186340057686e-03       1.583252398052e+03 
       5.270289881033e-03       1.871797616089e+03 
       6.634901858755e-03       2.176470308132e+03 
       8.352846554746e-03       2.479098330688e+03 
       1.051561078859e-02       2.751988765438e+03 
       1.323836964229e-02       2.956843897894e+03 
       1.666611995337e-02       3.046563242227e+03 
       2.098140171937e-02       2.974597556804e+03 
       2.641387140479e-02       2.718510792680e+03 
       3.323357968019e-02       2.317835712385e+03 
       4.123299361229e-02       1.913008132374e+03 
       4.790632219269e-02       1.678875859572e+03 
       5.275920367973e-02       1.559967860579e+03 
       5.677246018531e-02       1.483308756655e+03 
       6.036109956609e-02       1.423885098184e+03 
       6.371102674430e-02       1.371164723750e+03 
       6.692101071878e-02       1.319859379962e+03 
       7.005043409568e-02       1.267185407511e+03 
       7.313838240686e-02       1.211852653524e+03 
       7.621244612034e-02       1.153606621089e+03 
       7.929323714499e-02       1.092961860877e+03 
       8.239690320693e-02       1.030995086101e+03 
       8.553661991220e-02       9.691496168832e+02 
       8.872352263282e-02       9.090380257956e+02 
       9.196731331326e-02       8.522482358284e+02 
       9.527666941147e-02       8.001650645489e+02 
       9.865952743487e-02       7.538206932167e+02 
       1.021232841748e-01       7.137837137455e+02 
       1.056749422534e-01       6.800908799215e+02 
       1.093212169616e-01       6.522230706538e+02 
       1.130686155477e-01       6.291292212542e+02 
       1.169234964907e-01       6.093069924387e+02 
       1.208921139910e-01       5.909548130498e+02 
       1.249806514135e-01       5.722045561749e+02 
       1.291952464314e-01       5.514235566863e+02 
       1.335420099682e-01       5.275379942254e+02 
       1.380270405956e-01       5.002940286110e+02 
       1.426564357595e-01       4.703595200701e+02 
       1.474363010126e-01       4.392001400650e+02 
       1.523727583097e-01       4.087348477302e+02 
       1.574719543447e-01       3.808582027387e+02 
       1.627400698563e-01       3.569648742143e+02 
       1.681833308004e-01       3.376023095096e+02 
       1.738080222677e-01       3.223297634464e+02 
       1.796205060114e-01       3.098189015385e+02 
       1.856272424417e-01       2.982076910642e+02 
       1.918348179389e-01       2.856727917058e+02 
       1.982499783411e-01       2.710749958004e+02 
       2.048796694758e-01       2.544065628477e+02 
       2.117310856382e-01       2.367740905557e+02 
       2.188117269762e-01       2.198667821717e+02 
       2.261294668449e-01       2.051618732078e+02 
       2.336926303379e-01       1.932644570835e+02 
       2.415100854242e-01       1.836819810918e+02 
       2.495913484286e-01       1.751258673300e+02 
       2.579467060120e-01       1.662242316432e+02 
       2.665873563799e-01       1.562996776087e+02 
       2.755255732043e-01       1.457191780313e+02 
       2.847748967482e-01       1.355345400094e+02 
       2.943503580080e-01       1.266698381866e+02 
       3.042687434488e-01       1.192736294797e+02 
       3.145489102466e-01       1.127002992157e+02 
       3.252121650992e-01       1.061067865895e+02 
       3.362827239310e-01       9.917059618033e+01 
       3.477882756744e-01       9.228002592276e+01 
       3.597606814539e-01       8.602331189693e+01 
       3.722368519986e-01       8.054309216152e+01 
       3.852598625897e-01       7.545297447070e+01 
       3.988803888968e-01       7.036070638406e+01 
       4.131585827853e-01       6.532207879327e+01 
       4.281665613542e-01       6.064243527375e+01 
       4.439917664577e-01       5.636970993665e+01 
       4.607415854189e-01       5.226746242560e+01 
       4.785498415047e-01       4.824444230057e+01 
       4.975861293656e-01       4.443730544031e+01 
       5.180696089577e-01       4.085289706773e+01 
       5.402900263025e-01       3.736914075635e+01 
       5.646409116525e-01       3.400657759048e+01 
       5.916742382783e-01       3.077187420792e+01 
       6.221949245829e-01       2.760010169074e+01 
       6.574339212312e-01       2.448883162113e+01 
       6.993874264609e-01       2.138646592352e+01 
       7.515348877528e-01       1.824987141428e+01 
       8.204808261238e-01       1.501118889072e+01 
       9.198309510026e-01       1.160664769392e+01 
       1.077254073874e+00       8.094896948239e+00 
       1.327225527361e+00       4.988765372856e+00 
       1.668346862746e+00       2.906651206397e+00 
       2.100278141174e+00       1.672194872601e+00 
       2.644093360171e+00       9.540155236394e-01 
       3.328716322194e+00       5.402085270136e-01 
       4.190605566664e+00       3.038126324374e-01 
       5.275659838680e+00       1.698060405873e-01 
       6.641662234896e+00       9.437065435885e-02 
       8.361357364064e+00       5.217504764180e-02 
       1.052632526271e+01       2.870858403037e-02 
