# Matter power spectrum P(k) at redshift z=0
# for k=2.09814e-07 to 10.5263 h/Mpc,
# number of wavenumbers equal to 139
#    1:k (h/Mpc)              2:P (Mpc/h)^3        
       2.098140192535e-07       8.520864590109e-01 
       2.641402005889e-07       1.068842375166e+00 
       3.325328107978e-07       1.340737210918e+00 
       4.186340057686e-07       1.681797343988e+00 
       5.270289881033e-07       2.109617217050e+00 
       6.634901858755e-07       2.646266990286e+00 
       8.352846554746e-07       3.319431084809e+00 
       1.051561078859e-06       4.163836349812e+00 
       1.323836964229e-06       5.223043528160e+00 
       1.666611995340e-06       6.551694434684e+00 
       2.098140192535e-06       8.218330766953e+00 
       2.641402005889e-06       1.030892995244e+01 
       3.325328107978e-06       1.293134041289e+01 
       4.186340057686e-06       1.622084500592e+01 
       5.270289881033e-06       2.034713954675e+01 
       6.634901858755e-06       2.552308623487e+01 
       8.352846554746e-06       3.201569317708e+01 
       1.051561078859e-05       4.015988566661e+01 
       1.323836964229e-05       5.037577818119e+01 
       1.666611995340e-05       6.319033518158e+01 
       2.098140192535e-05       7.926453232415e+01 
       2.641402005889e-05       9.942740769774e+01 
       3.325328107978e-05       1.247187367587e+02 
       4.186340057686e-05       1.564424869007e+02 
       5.270289881033e-05       1.962337189807e+02 
       6.634901858755e-05       2.461422084862e+02 
       8.352846554746e-05       3.087367478467e+02 
       1.051561078859e-04       3.872348187586e+02 
       1.323836964229e-04       4.856629750917e+02 
       1.666611995340e-04       6.090536100114e+02 
       2.098140192535e-04       7.636833352927e+02 
       2.641402005889e-04       9.573562106935e+02 
       3.325328107978e-04       1.199730485081e+03 
       4.186340057686e-04       1.502679466758e+03 
       5.270289881033e-04       1.880665954773e+03 
       6.634901858755e-04       2.351096817594e+03 
       8.352846554746e-04       2.934603382383e+03 
       1.051561078859e-03       3.655126711210e+03 
       1.323836964229e-03       4.539538869371e+03 
       1.666611995340e-03       5.616453533416e+03 
       2.098140192535e-03       6.913912002407e+03 
       2.641402005889e-03       8.455357231861e+03 
       3.325328107978e-03       1.025351033500e+04 
       4.186340057686e-03       1.230199822101e+04 
       5.270289881033e-03       1.456385604559e+04 
       6.634901858755e-03       1.695762698222e+04 
       8.352846554746e-03       1.934206303791e+04 
       1.051561078859e-02       2.150074911011e+04 
       1.323836964229e-02       2.313310771458e+04 
       1.666611995337e-02       2.386793876202e+04 
       2.098140171937e-02       2.333632018244e+04 
       2.641387140479e-02       2.135673416066e+04 
       3.323357968019e-02       1.823411446600e+04 
       4.123299361229e-02       1.506887078494e+04 
       4.790632219269e-02       1.323650339255e+04 
       5.275920367973e-02       1.230613678825e+04 
       5.677246018531e-02       1.170654294631e+04 
       6.036109956609e-02       1.124169361247e+04 
       6.371102674430e-02       1.082897028746e+04 
       6.692101071878e-02       1.042685328522e+04 
       7.005043409568e-02       1.001347567327e+04 
       7.313838240686e-02       9.578707320353e+03 
       7.621244612034e-02       9.120572574992e+03 
       7.929323714499e-02       8.643161383840e+03 
       8.239690320693e-02       8.155005374820e+03 
       8.553661991220e-02       7.667537620799e+03 
       8.872352263282e-02       7.193536513004e+03 
       9.196731331326e-02       6.745592090253e+03 
       9.527666941147e-02       6.334694242332e+03 
       9.865952743487e-02       5.969047595757e+03 
       1.021232841748e-01       5.653189443594e+03 
       1.056749422534e-01       5.387446007706e+03 
       1.093212169616e-01       5.167738583521e+03 
       1.130686155477e-01       4.985768007720e+03 
       1.169234964907e-01       4.829650834652e+03 
       1.208921139910e-01       4.685121074461e+03 
       1.249806514135e-01       4.537373547727e+03 
       1.291952464314e-01       4.373458023734e+03 
       1.335420099682e-01       4.184847328965e+03 
       1.380270405956e-01       3.969513282020e+03 
       1.426564357595e-01       3.732740844087e+03 
       1.474363010126e-01       3.486151393708e+03 
       1.523727583097e-01       3.244974220668e+03 
       1.574719543447e-01       3.024256817584e+03 
       1.627400698563e-01       2.835088273236e+03 
       1.681833308004e-01       2.681836193520e+03 
       1.738080222677e-01       2.561019956893e+03 
       1.796205060114e-01       2.462102821606e+03 
       1.856272424417e-01       2.370297366476e+03 
       1.918348179389e-01       2.271112198061e+03 
       1.982499783411e-01       2.155484358133e+03 
       2.048796694758e-01       2.023342681342e+03 
       2.117310856382e-01       1.883480043931e+03 
       2.188117269762e-01       1.749331748675e+03 
       2.261294668449e-01       1.632656880110e+03 
       2.336926303379e-01       1.538282105358e+03 
       2.415100854242e-01       1.462299374034e+03 
       2.495913484286e-01       1.394459188930e+03 
       2.579467060120e-01       1.323840456689e+03 
       2.665873563799e-01       1.245045574909e+03 
       2.755255732043e-01       1.160993561501e+03 
       2.847748967482e-01       1.080063075887e+03 
       2.943503580080e-01       1.009621331504e+03 
       3.042687434488e-01       9.508589430992e+02 
       3.145489102466e-01       8.986349696335e+02 
       3.252121650992e-01       8.462297301711e+02 
       3.362827239310e-01       7.910706405489e+02 
       3.477882756744e-01       7.362540676903e+02 
       3.597606814539e-01       6.864744056455e+02 
       3.722368519986e-01       6.428731987658e+02 
       3.852598625897e-01       6.023695154425e+02 
       3.988803888968e-01       5.618331274485e+02 
       4.131585827853e-01       5.217095539504e+02 
       4.281665613542e-01       4.844382188077e+02 
       4.439917664577e-01       4.504038935798e+02 
       4.607415854189e-01       4.177190104748e+02 
       4.785498415047e-01       3.856549701288e+02 
       4.975861293656e-01       3.553047304336e+02 
       5.180696089577e-01       3.267241589511e+02 
       5.402900263025e-01       2.989378640067e+02 
       5.646409116525e-01       2.721106913509e+02 
       5.916742382783e-01       2.462966355964e+02 
       6.221949245829e-01       2.209765884172e+02 
       6.574339212312e-01       1.961314265122e+02 
       6.993874264609e-01       1.713481115872e+02 
       7.515348877528e-01       1.462808487441e+02 
       8.204808261238e-01       1.203847386939e+02 
       9.198309510026e-01       9.314529665552e+01 
       1.077254073874e+00       6.502449905538e+01 
       1.327225527361e+00       4.012382632468e+01 
       1.668346862746e+00       2.340981137402e+01 
       2.100278141174e+00       1.348625344870e+01 
       2.644093360171e+00       7.704759151670e+00 
       3.328716322194e+00       4.368816332632e+00 
       4.190605566664e+00       2.460402508168e+00 
       5.275659838680e+00       1.377051787897e+00 
       6.641662234896e+00       7.663533098061e-01 
       8.361357364064e+00       4.242744667648e-01 
       1.052632526271e+01       2.337669362124e-01 
