# Matter power spectrum P(k) at redshift z=0.5
# for k=2.09814e-07 to 10.5263 h/Mpc,
# number of wavenumbers equal to 139
#    1:k (h/Mpc)              2:P (Mpc/h)^3        
       2.098140192535e-07       3.650623262292e-01 
       2.641402005889e-07       4.580543549694e-01 
       3.325328107978e-07       5.747341671674e-01 
       4.186340057686e-07       7.211357323601e-01 
       5.270289881033e-07       9.048300479886e-01 
       6.634901858755e-07       1.135316664840e+00 
       8.352846554746e-07       1.424514945594e+00 
       1.051561078859e-06       1.787380460324e+00 
       1.323836964229e-06       2.242678395037e+00 
       1.666611995340e-06       2.813953968033e+00 
       2.098140192535e-06       3.530750035257e+00 
       2.641402005889e-06       4.430134847264e+00 
       3.325328107978e-06       5.558618953683e+00 
       4.186340057686e-06       6.974560368907e+00 
       5.270289881033e-06       8.751182335910e+00 
       6.634901858755e-06       1.098035967788e+01 
       8.352846554746e-06       1.377736939027e+01 
       1.051561078859e-05       1.728685083836e+01 
       1.323836964229e-05       2.169028319159e+01 
       1.666611995340e-05       2.721536557891e+01 
       2.098140192535e-05       3.414778267648e+01 
       2.641402005889e-05       4.284595943998e+01 
       3.325328107978e-05       5.375955862543e+01 
       4.186340057686e-05       6.745265902913e+01 
       5.270289881033e-05       8.463277610832e+01 
       6.634901858755e-05       1.061871524985e+02 
       8.352846554746e-05       1.332280503951e+02 
       1.051561078859e-04       1.671491030231e+02 
       1.323836964229e-04       2.096950813451e+02 
       1.666611995340e-04       2.630476015836e+02 
       2.098140192535e-04       3.299291367821e+02 
       2.641402005889e-04       4.137268464263e+02 
       3.325328107978e-04       5.186356684857e+02 
       4.186340057686e-04       6.498162438433e+02 
       5.270289881033e-04       8.135574352691e+02 
       6.634901858755e-04       1.017426537386e+03 
       8.352846554746e-04       1.270383530494e+03 
       1.051561078859e-03       1.582818747395e+03 
       1.323836964229e-03       1.966413456452e+03 
       1.666611995340e-03       2.433633971107e+03 
       2.098140192535e-03       2.996699950193e+03 
       2.641402005889e-03       3.665857264166e+03 
       3.325328107978e-03       4.446710292237e+03 
       4.186340057686e-03       5.336587425721e+03 
       5.270289881033e-03       6.319539504589e+03 
       6.634901858755e-03       7.360288202468e+03 
       8.352846554746e-03       8.397557242271e+03 
       1.051561078859e-02       9.337358904623e+03 
       1.323836964229e-02       1.004904108023e+04 
       1.666611995337e-02       1.037112031600e+04 
       2.098140171937e-02       1.014292483366e+04 
       2.641387140479e-02       9.285081462862e+03 
       3.323357968019e-02       7.929672973530e+03 
       4.123299361229e-02       6.554864740309e+03 
       4.790632219269e-02       5.758833054451e+03 
       5.275920367973e-02       5.354676548531e+03 
       5.677246018531e-02       5.094227977904e+03 
       6.036109956609e-02       4.892303645521e+03 
       6.371102674430e-02       4.712994925570e+03 
       6.692101071878e-02       4.538252884306e+03 
       7.005043409568e-02       4.358570703600e+03 
       7.313838240686e-02       4.169544698157e+03 
       7.621244612034e-02       3.970317986179e+03 
       7.929323714499e-02       3.762672881218e+03 
       8.239690320693e-02       3.550324940226e+03 
       8.553661991220e-02       3.338253081104e+03 
       8.872352263282e-02       3.132022404029e+03 
       9.196731331326e-02       2.937116665968e+03 
       9.527666941147e-02       2.758323532304e+03 
       9.865952743487e-02       2.599218394401e+03 
       1.021232841748e-01       2.461780071905e+03 
       1.056749422534e-01       2.346153704865e+03 
       1.093212169616e-01       2.250565954254e+03 
       1.130686155477e-01       2.171405031187e+03 
       1.169234964907e-01       2.103497394805e+03 
       1.208921139910e-01       2.040630901587e+03 
       1.249806514135e-01       1.976357507971e+03 
       1.291952464314e-01       1.905036144302e+03 
       1.335420099682e-01       1.822951532035e+03 
       1.380270405956e-01       1.729218923882e+03 
       1.426564357595e-01       1.626139323464e+03 
       1.474363010126e-01       1.518774626322e+03 
       1.523727583097e-01       1.413759397350e+03 
       1.574719543447e-01       1.317650034940e+03 
       1.627400698563e-01       1.235279245605e+03 
       1.681833308004e-01       1.168551755892e+03 
       1.738080222677e-01       1.115952764859e+03 
       1.796205060114e-01       1.072892423264e+03 
       1.856272424417e-01       1.032927807315e+03 
       1.918348179389e-01       9.897439772729e+02 
       1.982499783411e-01       9.393907889701e+02 
       2.048796694758e-01       8.818363714737e+02 
       2.117310856382e-01       8.209122392984e+02 
       2.188117269762e-01       7.624739835527e+02 
       2.261294668449e-01       7.116474858710e+02 
       2.336926303379e-01       6.705375909921e+02 
       2.415100854242e-01       6.374418668516e+02 
       2.495913484286e-01       6.078931525942e+02 
       2.579467060120e-01       5.771308003894e+02 
       2.665873563799e-01       5.428014819930e+02 
       2.755255732043e-01       5.061774274559e+02 
       2.847748967482e-01       4.709114936780e+02 
       2.943503580080e-01       4.402161039874e+02 
       3.042687434488e-01       4.146109567937e+02 
       3.145489102466e-01       3.918549266951e+02 
       3.252121650992e-01       3.690180846645e+02 
       3.362827239310e-01       3.449785429671e+02 
       3.477882756744e-01       3.210865084691e+02 
       3.597606814539e-01       2.993893442938e+02 
       3.722368519986e-01       2.803851945307e+02 
       3.852598625897e-01       2.627306042096e+02 
       3.988803888968e-01       2.450603953369e+02 
       4.131585827853e-01       2.275688980570e+02 
       4.281665613542e-01       2.113202478126e+02 
       4.439917664577e-01       1.964824497343e+02 
       4.607415854189e-01       1.822322212804e+02 
       4.785498415047e-01       1.682517637799e+02 
       4.975861293656e-01       1.550179589367e+02 
       5.180696089577e-01       1.425552770584e+02 
       5.402900263025e-01       1.304382204611e+02 
       5.646409116525e-01       1.187387630566e+02 
       5.916742382783e-01       1.074805224606e+02 
       6.221949245829e-01       9.643701720338e+01 
       6.574339212312e-01       8.559992932358e+01 
       6.993874264609e-01       7.478901004764e+01 
       7.515348877528e-01       6.385331031135e+01 
       8.204808261238e-01       5.255488999200e+01 
       9.198309510026e-01       4.066887957521e+01 
       1.077254073874e+00       2.839622761669e+01 
       1.327225527361e+00       1.752648288322e+01 
       1.668346862746e+00       1.022844544225e+01 
       2.100278141174e+00       5.894176654121e+00 
       2.644093360171e+00       3.368302548746e+00 
       3.328716322194e+00       1.910451971351e+00 
       4.190605566664e+00       1.076214873579e+00 
       5.275659838680e+00       6.025094753252e-01 
       6.641662234896e+00       3.354006346951e-01 
       8.361357364064e+00       1.857392535551e-01 
       1.052632526271e+01       1.023677095457e-01 
