# Matter power spectrum P(k) at redshift z=2
# for k=1.89226e-07 to 11.9525 h/Mpc,
# number of wavenumbers equal to 140
#    1:k (h/Mpc)              2:P (Mpc/h)^3        
       1.892262632932e-07       3.063412149196e-01 
       2.382217514387e-07       3.821249809399e-01 
       2.999034165283e-07       4.766564009519e-01 
       3.775560321514e-07       5.945733355343e-01 
       4.753148832515e-07       7.416609748291e-01 
       5.983859851293e-07       9.251356693603e-01 
       7.533233227408e-07       1.153998974870e+00 
       9.483778742956e-07       1.439479281832e+00 
       1.193937005934e-06       1.795582695959e+00 
       1.503077636852e-06       2.239780195218e+00 
       1.892262632932e-06       2.793864776242e+00 
       2.382217514387e-06       3.485020635723e+00 
       2.999034165283e-06       4.347156839299e+00 
       3.775560321514e-06       5.422570888602e+00 
       4.753148832515e-06       6.764023778430e+00 
       5.983859851293e-06       8.437328287058e+00 
       7.533233227408e-06       1.052457736071e+01 
       9.483778742956e-06       1.312817075496e+01 
       1.193937005934e-05       1.637583700623e+01 
       1.503077636852e-05       2.042689619798e+01 
       1.892262632932e-05       2.548006896015e+01 
       2.382217514387e-05       3.178321117609e+01 
       2.999034165283e-05       3.964544488499e+01 
       3.775560321514e-05       4.945226638406e+01 
       4.753148832515e-05       6.168434489553e+01 
       5.983859851293e-05       7.694087917032e+01 
       7.533233227408e-05       9.596854964099e+01 
       9.483778742956e-05       1.196972741788e+02 
       1.193937005934e-04       1.492841059681e+02 
       1.503077636852e-04       1.861666190038e+02 
       1.892262632932e-04       2.321268448449e+02 
       2.382217514387e-04       2.893659494116e+02 
       2.999034165283e-04       3.605878685674e+02 
       3.775560321514e-04       4.490863514196e+02 
       4.753148832515e-04       5.588236838930e+02 
       5.983859851293e-04       6.944812682614e+02 
       7.533233227408e-04       8.614555611951e+02 
       9.483778742956e-04       1.065772787870e+03 
       1.193937005934e-03       1.313892889098e+03 
       1.503077636852e-03       1.612312184723e+03 
       1.892262632932e-03       1.966740711931e+03 
       2.382217514387e-03       2.380729002596e+03 
       2.999034165283e-03       2.853905229613e+03 
       3.775560321514e-03       3.379714329908e+03 
       4.753148832515e-03       3.942525796515e+03 
       5.983859851293e-03       4.514559550460e+03 
       7.533233227408e-03       5.052911583292e+03 
       9.483778742956e-03       5.497124078086e+03 
       1.193937005934e-02       5.768932346333e+03 
       1.503077636851e-02       5.778415675313e+03 
       1.892262625685e-02       5.445974807487e+03 
       2.382210867050e-02       4.752611087732e+03 
       2.997963215603e-02       3.813568033906e+03 
       3.734766324975e-02       2.931425645038e+03 
       4.381960706410e-02       2.449103697782e+03 
       4.847427886496e-02       2.236436615729e+03 
       5.227045045340e-02       2.115856590876e+03 
       5.564012797471e-02       2.030136221263e+03 
       5.877232362387e-02       1.956534378697e+03 
       6.176558845511e-02       1.883966071348e+03 
       6.467838419521e-02       1.806698225411e+03 
       6.754880465681e-02       1.722147067241e+03 
       7.040352683168e-02       1.629919988070e+03 
       7.326234968733e-02       1.531259965595e+03 
       7.614069789784e-02       1.428600819371e+03 
       7.905109684136e-02       1.325132164236e+03 
       8.200408843696e-02       1.224357530678e+03 
       8.500882463734e-02       1.129667491060e+03 
       8.807346580984e-02       1.043966178921e+03 
       9.120545604509e-02       9.693845280319e+02 
       9.441171802768e-02       9.070962441227e+02 
       9.769879367781e-02       8.572304170621e+02 
       1.010729472194e-01       8.188615340568e+02 
       1.045402415802e-01       7.900609513003e+02 
       1.081065954645e-01       7.680187300707e+02 
       1.117778261778e-01       7.492739278989e+02 
       1.155596818137e-01       7.301029994200e+02 
       1.194578654539e-01       7.070820835922e+02 
       1.234780533889e-01       6.777544063920e+02 
       1.276259089431e-01       6.412313850519e+02 
       1.319070932064e-01       5.984973798456e+02 
       1.363272737830e-01       5.522376217831e+02 
       1.408921325529e-01       5.061743204173e+02 
       1.456073733590e-01       4.641018562763e+02 
       1.504787304882e-01       4.289324450503e+02 
       1.555119787813e-01       4.020223412366e+02 
       1.607129461901e-01       3.828951801577e+02 
       1.660875295858e-01       3.693632548317e+02 
       1.716417146145e-01       3.580520926636e+02 
       1.773816003923e-01       3.453520647908e+02 
       1.833134298321e-01       3.286548107532e+02 
       1.894436264083e-01       3.073986349464e+02 
       1.957788381913e-01       2.832945464557e+02 
       2.023259900365e-01       2.594683157789e+02 
       2.090923448980e-01       2.389443408131e+02 
       2.160855753698e-01       2.232929635121e+02 
       2.233138467498e-01       2.120508040553e+02 
       2.307859132002e-01       2.030743691546e+02 
       2.385112289488e-01       1.936926652074e+02 
       2.465000769907e-01       1.822068567226e+02 
       2.547637184255e-01       1.688518279056e+02 
       2.633145664665e-01       1.554411201446e+02 
       2.721663903460e-01       1.439205549669e+02 
       2.813345559187e-01       1.349785032131e+02 
       2.908363118585e-01       1.277117902200e+02 
       3.006911331577e-01       1.205048717540e+02 
       3.109211374467e-01       1.124293178058e+02 
       3.215515948730e-01       1.039441931070e+02 
       3.326115595264e-01       9.620639184060e+01 
       3.441346606132e-01       8.977080310040e+01 
       3.561601061900e-01       8.410436299012e+01 
       3.687339735424e-01       7.836536060656e+01 
       3.819108918133e-01       7.244199754278e+01 
       3.957562701679e-01       6.690404224977e+01 
       4.103492984841e-01       6.203161588377e+01 
       4.257870642792e-01       5.745078910492e+01 
       4.421903194595e-01       5.286520461981e+01 
       4.597117487243e-01       4.849835894318e+01 
       4.785481430393e-01       4.448343892357e+01 
       4.989588744428e-01       4.059563136339e+01 
       5.212949337241e-01       3.681887442432e+01 
       5.460464716019e-01       3.323677362358e+01 
       5.739244534067e-01       2.973195500676e+01 
       6.060090540538e-01       2.631585317019e+01 
       6.440378509654e-01       2.293263821728e+01 
       6.910097258780e-01       1.954060591947e+01 
       7.525535764846e-01       1.606981475927e+01 
       8.401681842157e-01       1.245530313122e+01 
       9.775905765872e-01       8.737582513961e+00 
       1.198074560808e+00       5.391144156873e+00 
       1.504792986017e+00       3.111033401647e+00 
       1.894344932410e+00       1.770519827484e+00 
       2.384838632212e+00       9.998527313497e-01 
       3.002333956898e+00       5.607362302269e-01 
       3.779714513032e+00       3.124916667137e-01 
       4.758378649783e+00       1.731460549818e-01 
       5.990443801150e+00       9.543139475534e-02 
       7.541521929193e+00       5.234307457601e-02 
       9.494213600264e+00       2.858107661552e-02 
       1.195250676637e+01       1.554137279841e-02 
