# Matter power spectrum P(k) at redshift z=2
# for k=2.10203e-07 to 10.547 h/Mpc,
# number of wavenumbers equal to 139
#    1:k (h/Mpc)              2:P (Mpc/h)^3        
       2.102028363670e-07       1.969843058271e-01 
       2.646296923336e-07       2.457149755175e-01 
       3.331490443941e-07       3.065008094378e-01 
       4.194097979026e-07       3.823240564314e-01 
       5.280056525351e-07       4.769047243485e-01 
       6.647197335474e-07       5.948830896176e-01 
       8.368325642839e-07       7.420473561082e-01 
       1.053509780594e-06       9.256176333058e-01 
       1.326290234363e-06       1.154600165392e+00 
       1.669700479454e-06       1.440229190221e+00 
       2.102028363670e-06       1.796518106514e+00 
       2.646296923336e-06       2.240946985281e+00 
       3.331490443941e-06       2.795320160210e+00 
       4.194097979026e-06       3.486835957961e+00 
       5.280056525351e-06       4.349421044699e+00 
       6.647197335474e-06       5.425394830525e+00 
       8.368325642839e-06       6.767545544739e+00 
       1.053509780594e-05       8.441719752287e+00 
       1.326290234363e-05       1.053005218264e+01 
       1.669700479454e-05       1.313499398785e+01 
       2.102028363670e-05       1.638433639371e+01 
       2.646296923336e-05       2.043747486809e+01 
       3.331490443941e-05       2.549321851138e+01 
       4.194097979026e-05       3.179952258621e+01 
       5.280056525351e-05       3.966561141223e+01 
       6.647197335474e-05       4.947706609911e+01 
       8.368325642839e-05       6.171457739591e+01 
       1.053509780594e-04       7.697720515876e+01 
       1.326290234363e-04       9.601113171944e+01 
       1.669700479454e-04       1.197450199386e+02 
       2.102028363670e-04       1.493331312346e+02 
       2.646296923336e-04       1.862072140570e+02 
       3.331490443941e-04       2.321376463565e+02 
       4.194097979026e-04       2.893031116570e+02 
       5.280056525351e-04       3.603658722800e+02 
       6.647197335474e-04       4.485463757288e+02 
       8.368325642839e-04       5.576871800695e+02 
       1.053509780594e-03       6.922932888502e+02 
       1.326290234363e-03       8.575307336425e+02 
       1.669700479454e-03       1.059136920561e+03 
       2.102028363670e-03       1.303133264266e+03 
       2.646296923336e-03       1.595252126349e+03 
       3.331490443941e-03       1.939993929090e+03 
       4.194097979026e-03       2.339211000537e+03 
       5.280056525351e-03       2.786835977189e+03 
       6.647197335474e-03       3.276896587117e+03 
       8.368325642839e-03       3.784825075043e+03 
       1.053509780594e-02       4.271868998560e+03 
       1.326290234363e-02       4.678778371344e+03 
       1.669700479431e-02       4.925639357242e+03 
       2.102028277392e-02       4.924596397765e+03 
       2.646253885695e-02       4.619040230952e+03 
       3.327268893686e-02       4.054292365764e+03 
       4.092088943067e-02       3.467757764676e+03 
       4.685840596586e-02       3.131446369739e+03 
       5.128573236057e-02       2.946095217654e+03 
       5.502119163264e-02       2.821070333493e+03 
       5.839726063851e-02       2.722957419661e+03 
       6.156859796267e-02       2.636344478871e+03 
       6.461973915922e-02       2.552831900555e+03 
       6.760255724170e-02       2.467547117591e+03 
       7.055172678093e-02       2.377817509242e+03 
       7.349202803779e-02       2.282579800600e+03 
       7.644216361184e-02       2.182052242188e+03 
       7.941691336133e-02       2.077486111193e+03 
       8.242842756916e-02       1.970918799982e+03 
       8.548704197489e-02       1.864900781518e+03 
       8.860181246522e-02       1.762196824389e+03 
       9.178087764377e-02       1.665478591269e+03 
       9.503171149907e-02       1.577032360124e+03 
       9.836130347712e-02       1.498506361677e+03 
       1.017762891532e-01       1.430716724351e+03 
       1.052830463923e-01       1.373523851103e+03 
       1.088877668380e-01       1.325789955785e+03 
       1.125965094129e-01       1.285433307753e+03 
       1.164152404942e-01       1.249602228580e+03 
       1.203498641159e-01       1.214995216731e+03 
       1.244062446785e-01       1.178333207935e+03 
       1.285902240749e-01       1.136942793831e+03 
       1.329076347527e-01       1.089339313421e+03 
       1.373643099813e-01       1.035642737629e+03 
       1.419660924245e-01       9.776550140629e+02 
       1.467188420098e-01       9.185056036793e+02 
       1.516284440194e-01       8.619141954913e+02 
       1.567008182826e-01       8.112613163557e+02 
       1.619419303246e-01       7.687237149739e+02 
       1.673578053087e-01       7.346965366864e+02 
       1.729545455976e-01       7.076420015720e+02 
       1.787383527502e-01       6.844403057336e+02 
       1.847155547727e-01       6.612627948844e+02 
       1.908926394396e-01       6.348387228667e+02 
       1.972762945246e-01       6.037134697617e+02 
       2.038734558112e-01       5.688854678085e+02 
       2.106913638200e-01       5.333653726797e+02 
       2.177376302897e-01       5.007677011028e+02 
       2.250203156066e-01       4.736247038922e+02 
       2.325480185991e-01       4.522475973177e+02 
       2.403299804314e-01       4.346492066292e+02 
       2.483762047568e-01       4.176101702357e+02 
       2.566975968701e-01       3.984886163165e+02 
       2.653061253648e-01       3.767930465105e+02 
       2.742150108185e-01       3.543702697552e+02 
       2.834389473689e-01       3.339401343698e+02 
       2.929943648279e-01       3.170624463180e+02 
       3.028997413534e-01       3.030762450596e+02 
       3.131759798958e-01       2.897875527805e+02 
       3.238468659797e-01       2.754042040308e+02 
       3.349396303635e-01       2.600768189503e+02 
       3.464856484588e-01       2.454965470047e+02 
       3.585213202013e-01       2.329406037015e+02 
       3.710891910557e-01       2.219268809140e+02 
       3.842393997090e-01       2.109737191323e+02 
       3.980315751074e-01       1.995203247566e+02 
       4.125373620016e-01       1.884706396567e+02 
       4.278438421782e-01       1.786024663379e+02 
       4.440582591408e-01       1.693588709007e+02 
       4.613146848473e-01       1.599746672679e+02 
       4.797836581379e-01       1.508079059000e+02 
       4.996865103030e-01       1.422949576392e+02 
       5.213173443960e-01       1.339425733953e+02 
       5.450780215782e-01       1.256222047636e+02 
       5.715362976634e-01       1.175971395701e+02 
       6.015274361438e-01       1.095367215274e+02 
       6.363427180049e-01       1.014628985022e+02 
       6.781044139668e-01       9.317435967002e+01 
       7.305723972953e-01       8.449731709256e+01 
       8.010126941285e-01       7.509607712682e+01 
       9.045571111669e-01       6.454720808697e+01 
       1.070825008804e+00       5.266823015795e+01 
       1.328763913478e+00       4.088818975257e+01 
       1.671594334686e+00       3.126770505414e+01 
       2.104396297186e+00       2.370898611457e+01 
       2.649277934976e+00       1.769942245884e+01 
       3.335243315234e+00       1.292483215418e+01 
       4.198822564064e+00       9.187053388572e+00 
       5.286004425515e+00       6.335290569495e+00 
       6.654685298137e+00       4.232802212448e+00 
       8.377752429318e+00       2.743680468210e+00 
       1.054696542699e+01       1.731470445968e+00 
