# Matter power spectrum P(k) at redshift z=2.5
# for k=2.33313e-07 to 11.7056 h/Mpc,
# number of wavenumbers equal to 139
#    1:k (h/Mpc)              2:P (Mpc/h)^3        
       2.333131515120e-07       9.912401979561e-02 
       2.937238553442e-07       1.236456680785e-01 
       3.697764255430e-07       1.542335677960e-01 
       4.655209387985e-07       1.923884096231e-01 
       5.860561395757e-07       2.399821300926e-01 
       7.378009668498e-07       2.993497520052e-01 
       9.288363860135e-07       3.734039440978e-01 
       1.169335729751e-06       4.657779209848e-01 
       1.472106465103e-06       5.810036938675e-01 
       1.853272237785e-06       7.247344174832e-01 
       2.333131515120e-06       9.040217411683e-01 
       2.937238553442e-06       1.127661770112e+00 
       3.697764255430e-06       1.406626610046e+00 
       4.655209387985e-06       1.754602663118e+00 
       5.860561395757e-06       2.188662078793e+00 
       7.378009668498e-06       2.730100288430e+00 
       9.288363860135e-06       3.405480695768e+00 
       1.169335729751e-05       4.247937717083e+00 
       1.472106465103e-05       5.298802018938e+00 
       1.853272237785e-05       6.609627493821e+00 
       2.333131515120e-05       8.244719039942e+00 
       2.937238553442e-05       1.028428444142e+01 
       3.697764255430e-05       1.282836350833e+01 
       4.655209387985e-05       1.600172437436e+01 
       5.860561395757e-05       1.995996149226e+01 
       7.378009668498e-05       2.489708322363e+01 
       9.288363860135e-05       3.105493926143e+01 
       1.169335729751e-04       3.873490676390e+01 
       1.472106465103e-04       4.831232324975e+01 
       1.853272237785e-04       6.025420767638e+01 
       2.333131515120e-04       7.514081605891e+01 
       2.937238553442e-04       9.369147065003e+01 
       3.697764255430e-04       1.167947668198e+02 
       4.655209387985e-04       1.455425186930e+02 
       5.860561395757e-04       1.812654237523e+02 
       7.378009668498e-04       2.255662800603e+02 
       9.288363860135e-04       2.803440339848e+02 
       1.169335729751e-03       3.478001566926e+02 
       1.472106465103e-03       4.304180915709e+02 
       1.853272237785e-03       5.308983885687e+02 
       2.333131515120e-03       6.519984690431e+02 
       2.937238553442e-03       7.961996135989e+02 
       3.697764255430e-03       9.651943012261e+02 
       4.655209387985e-03       1.159177848120e+03 
       5.860561395757e-03       1.375823127217e+03 
       7.378009668498e-03       1.608977306691e+03 
       9.288363860135e-03       1.847142965744e+03 
       1.169335729751e-02       2.071842984205e+03 
       1.472106465103e-02       2.256436443097e+03 
       1.853272237773e-02       2.366796538699e+03 
       2.333131462773e-02       2.367074156747e+03 
       2.937208011786e-02       2.235298778135e+03 
       3.694360154283e-02       1.990028875685e+03 
       4.562352646300e-02       1.724488743490e+03 
       5.255909637546e-02       1.561996966901e+03 
       5.767143300761e-02       1.469063922156e+03 
       6.194921254648e-02       1.403336346052e+03 
       6.579831615703e-02       1.349445232169e+03 
       6.940452717547e-02       1.300612000780e+03 
       7.286818549143e-02       1.253349249353e+03 
       7.625033349861e-02       1.205792944373e+03 
       7.959150863636e-02       1.157057584567e+03 
       8.292052978077e-02       1.106935134557e+03 
       8.625905323161e-02       1.055717709625e+03 
       8.962412974312e-02       1.004062956281e+03 
       9.302973171345e-02       9.528695036716e+02 
       9.648771200438e-02       9.031526889318e+02 
       1.000084309692e-01       8.559203458006e+02 
       1.036011805219e-01       8.120554965183e+02 
       1.072744790243e-01       7.722129090425e+02 
       1.110362810766e-01       7.367374252447e+02 
       1.148941295421e-01       7.056105829893e+02 
       1.188552673026e-01       6.784308382097e+02 
       1.229267202795e-01       6.544341637003e+02 
       1.271153595373e-01       6.325622811157e+02 
       1.314279479110e-01       6.115843422486e+02 
       1.358711750574e-01       5.902703503876e+02 
       1.404516838098e-01       5.675996229898e+02 
       1.451760900422e-01       5.429670111249e+02 
       1.500509977970e-01       5.163326124685e+02 
       1.550830111333e-01       4.882596147774e+02 
       1.602787439524e-01       4.598070513346e+02 
       1.656448289347e-01       4.322874416183e+02 
       1.711879266387e-01       4.069448387118e+02 
       1.769147357622e-01       3.846380011935e+02 
       1.828320055356e-01       3.656124653622e+02 
       1.889465511963e-01       3.494240356797e+02 
       1.952652734799e-01       3.350476617120e+02 
       2.017951830546e-01       3.211717772873e+02 
       2.085434308225e-01       3.066232690527e+02 
       2.155173450146e-01       2.907900433827e+02 
       2.227244760241e-01       2.738554759394e+02 
       2.301726499622e-01       2.567020826079e+02 
       2.378700319853e-01       2.404975183996e+02 
       2.458252005596e-01       2.261519977194e+02 
       2.540472339945e-01       2.139092082952e+02 
       2.625458108258e-01       2.032653491285e+02 
       2.713313259735e-01       1.932624592655e+02 
       2.804150250755e-01       1.830263717004e+02 
       2.898091600314e-01       1.722576148418e+02 
       2.995271696433e-01       1.613534188032e+02 
       3.095838903590e-01       1.510597463118e+02 
       3.199958036096e-01       1.419047678261e+02 
       3.307813281986e-01       1.338366097299e+02 
       3.419611688231e-01       1.263273125042e+02 
       3.535587353323e-01       1.188461551339e+02 
       3.656006521172e-01       1.112950798701e+02 
       3.781173836065e-01       1.040080735735e+02 
       3.911440110151e-01       9.733451479574e+01 
       4.047212084582e-01       9.126325112706e+01 
       4.188964851705e-01       8.548773437352e+01 
       4.337257877946e-01       7.979896783354e+01 
       4.492755972530e-01       7.429708408345e+01 
       4.656257163470e-01       6.916246918267e+01 
       4.828730400383e-01       6.435924386631e+01 
       5.011367530497e-01       5.972321386762e+01 
       5.205656495008e-01       5.523544024756e+01 
       5.413486917036e-01       5.097783962542e+01 
       5.637306637475e-01       4.691343731722e+01 
       5.880361179237e-01       4.296893643749e+01 
       6.147073623470e-01       3.916270266126e+01 
       6.443673326070e-01       3.547004847170e+01 
       6.779289639474e-01       3.184716097091e+01 
       7.167969713000e-01       2.827344504951e+01 
       7.632666421790e-01       2.469584491118e+01 
       8.213757497763e-01       2.105673024943e+01 
       8.988674807764e-01       1.727541461129e+01 
       1.011799602342e+00       1.327893113282e+01 
       1.192201245670e+00       9.167752525590e+00 
       1.475150792427e+00       5.615855062795e+00 
       1.855235789838e+00       3.278671288009e+00 
       2.335574943282e+00       1.890806778468e+00 
       2.940314564977e+00       1.080660514633e+00 
       3.701636724487e+00       6.126536793286e-01 
       4.660084537687e+00       3.447914647071e-01 
       5.866698845603e+00       1.927551300370e-01 
       7.385736260074e+00       1.071077484515e-01 
       9.298091062616e+00       5.918727535224e-02 
       1.170560311990e+01       3.254079721178e-02 
