# Matter power spectrum P(k) at redshift z=1
# for k=2.11096e-07 to 10.5948 h/Mpc,
# number of wavenumbers equal to 139
#    1:k (h/Mpc)              2:P (Mpc/h)^3        
       2.110964881572e-07       4.458541498616e-01 
       2.657547332816e-07       5.559590611638e-01 
       3.345653870328e-07       6.932546833758e-01 
       4.211928676423e-07       8.644558371747e-01 
       5.302504043414e-07       1.077935586134e+00 
       6.675457086395e-07       1.344134743907e+00 
       8.403902561404e-07       1.676072510390e+00 
       1.057988649279e-06       2.089983208839e+00 
       1.331928795968e-06       2.606110266302e+00 
       1.676799007944e-06       3.249696266009e+00 
       2.110964881572e-06       4.052217488979e+00 
       2.657547332816e-06       5.052923314776e+00 
       3.345653870328e-06       6.300755757421e+00 
       4.211928676423e-06       7.856742980414e+00 
       5.302504043414e-06       9.796983794735e+00 
       6.675457086395e-06       1.221636898203e+01 
       8.403902561404e-06       1.523322120152e+01 
       1.057988649279e-05       1.899507993430e+01 
       1.331928795968e-05       2.368591345204e+01 
       1.676799007944e-05       2.953510867013e+01 
       2.110964881572e-05       3.682867488745e+01 
       2.657547332816e-05       4.592320210580e+01 
       3.345653870328e-05       5.726324227085e+01 
       4.211928676423e-05       7.140293523906e+01 
       5.302504043414e-05       8.903288143099e+01 
       6.675457086395e-05       1.110134655917e+02 
       8.403902561404e-05       1.384160459171e+02 
       1.057988649279e-04       1.725736004992e+02 
       1.331928795968e-04       2.151424855925e+02 
       1.676799007944e-04       2.681767375469e+02 
       2.110964881572e-04       3.342155266397e+02 
       2.657547332816e-04       4.163824019713e+02 
       3.345653870328e-04       5.184910413850e+02 
       4.211928676423e-04       6.451454664379e+02 
       5.302504043414e-04       8.018130682178e+02 
       6.675457086395e-04       9.948391060003e+02 
       8.403902561404e-04       1.231367925483e+03 
       1.057988649279e-03       1.519136712632e+03 
       1.331928795968e-03       1.866064980208e+03 
       1.676799007944e-03       2.279420899167e+03 
       2.110964881572e-03       2.764342222919e+03 
       2.657547332816e-03       3.321827196384e+03 
       3.345653870328e-03       3.946191354336e+03 
       4.211928676423e-03       4.622258768519e+03 
       5.302504043414e-03       5.322437431026e+03 
       6.675457086395e-03       6.004435860433e+03 
       8.403902561404e-03       6.610483649386e+03 
       1.057988649279e-02       7.068206512493e+03 
       1.331928795968e-02       7.294418143164e+03 
       1.676799007944e-02       7.204260997422e+03 
       2.110964881185e-02       6.732118355373e+03 
       2.657546575672e-02       5.873644841213e+03 
       3.345427229140e-02       4.745981061066e+03 
       4.197312339913e-02       3.626134090105e+03 
       5.070468785200e-02       2.894825792523e+03 
       5.704715482271e-02       2.568835781371e+03 
       6.197586301888e-02       2.387408719892e+03 
       6.623904959792e-02       2.256463028551e+03 
       7.014449674948e-02       2.144069003823e+03 
       7.384310558672e-02       2.036747313907e+03 
       7.742055361876e-02       1.928503441608e+03 
       8.093088718827e-02       1.817212398634e+03 
       8.441100796204e-02       1.703074295779e+03 
       8.788774241488e-02       1.587754866517e+03 
       9.138162866207e-02       1.473775643512e+03 
       9.490909635569e-02       1.364012346536e+03 
       9.848379524502e-02       1.261266267218e+03 
       1.021174431298e-01       1.167913500892e+03 
       1.058203879467e-01       1.085645050566e+03 
       1.096019921994e-01       1.015303786337e+03 
       1.134709027592e-01       9.568121965338e+02 
       1.174352442545e-01       9.091781916868e+02 
       1.215027600412e-01       8.705691646296e+02 
       1.256809162929e-01       8.384588125963e+02 
       1.299769795641e-01       8.098656792022e+02 
       1.343980749114e-01       7.817024107249e+02 
       1.389512295627e-01       7.512270330985e+02 
       1.436434057462e-01       7.165324913658e+02 
       1.484815253852e-01       6.769518891578e+02 
       1.534724887594e-01       6.332314893526e+02 
       1.586231888288e-01       5.873664987940e+02 
       1.639405226539e-01       5.421031395743e+02 
       1.694314011661e-01       5.002381482106e+02 
       1.751027584357e-01       4.639226651486e+02 
       1.809615615117e-01       4.341602266576e+02 
       1.870148218617e-01       4.106039618936e+02 
       1.932696094177e-01       3.916777049477e+02 
       1.997330702104e-01       3.750087281056e+02 
       2.064124485657e-01       3.581239361350e+02 
       2.133151148286e-01       3.392554054845e+02 
       2.204485995782e-01       3.179551333114e+02 
       2.278206353071e-01       2.951923474290e+02 
       2.354392065641e-01       2.728254925730e+02 
       2.433126096074e-01       2.526967643001e+02 
       2.514495227063e-01       2.358094366851e+02 
       2.598590883637e-01       2.219653456581e+02 
       2.685510089392e-01       2.099860786991e+02 
       2.775356574453e-01       1.983941198182e+02 
       2.868242056993e-01       1.862192942119e+02 
       2.964287725633e-01       1.734675354775e+02 
       3.063625957535e-01       1.609409832175e+02 
       3.166402316788e-01       1.495552049900e+02 
       3.272777890756e-01       1.396786769095e+02 
       3.382932039286e-01       1.309610293313e+02 
       3.497065654541e-01       1.227148123902e+02 
       3.615405059853e-01       1.144997738275e+02 
       3.738206717267e-01       1.064065119388e+02 
       3.865762969775e-01       9.881926440135e+01 
       3.998409122073e-01       9.195384781415e+01 
       4.136532272675e-01       8.566402668779e+01 
       4.280582465291e-01       7.966871415310e+01 
       4.431086951526e-01       7.387411854498e+01 
       4.588668686925e-01       6.839585677853e+01 
       4.754070677471e-01       6.331519774417e+01 
       4.928188552516e-01       5.855284376420e+01 
       5.112114930559e-01       5.400967195450e+01 
       5.307201060662e-01       4.969284066284e+01 
       5.515144396766e-01       4.562763824399e+01 
       5.738116192296e-01       4.177157256283e+01 
       5.978952832256e-01       3.808777569426e+01 
       6.241452409222e-01       3.457447073187e+01 
       6.530852470524e-01       3.120558916876e+01 
       6.854635070950e-01       2.795291229121e+01 
       7.223957275754e-01       2.479326249906e+01 
       7.656357003573e-01       2.169155218405e+01 
       8.181256810403e-01       1.860771713084e+01 
       8.852083439239e-01       1.548932754882e+01 
       9.774762743109e-01       1.227603904713e+01 
       1.117149087632e+00       8.947255981635e+00 
       1.343661781440e+00       5.748146120714e+00 
       1.679547576123e+00       3.341625582250e+00 
       2.113948686818e+00       1.895183319973e+00 
       2.661299732054e+00       1.066405012431e+00 
       3.350377855488e+00       5.960751022722e-01 
       4.217875821385e+00       3.311644356992e-01 
       5.309991055334e+00       1.829693304426e-01 
       6.684882675960e+00       1.005784746018e-01 
       8.415768675628e+00       5.503012291249e-02 
       1.059482504553e+01       2.997912861642e-02 
