# Matter power spectrum P(k) at redshift z=0.5
# for k=2.09961e-07 to 10.5339 h/Mpc,
# number of wavenumbers equal to 139
#    1:k (h/Mpc)              2:P (Mpc/h)^3        
       2.099607480503e-07       6.651982437674e-01 
       2.643249211999e-07       8.297573223896e-01 
       3.327653602690e-07       1.035025603691e+00 
       4.189267682075e-07       1.291073872766e+00 
       5.273975541772e-07       1.610464260437e+00 
       6.639541830718e-07       2.008866560571e+00 
       8.358687933361e-07       2.505827013798e+00 
       1.052296464857e-06       3.125727274591e+00 
       1.324762760349e-06       3.898980608997e+00 
       1.667777503602e-06       4.863524009084e+00 
       2.099607480503e-06       6.066679423176e+00 
       2.643249211999e-06       7.567475410363e+00 
       3.327653602690e-06       9.439543106154e+00 
       4.189267682075e-06       1.177472854500e+01 
       5.273975541772e-06       1.468759850060e+01 
       6.639541830718e-06       1.832106077791e+01 
       8.358687933361e-06       2.285337443857e+01 
       1.052296464857e-05       2.850689338035e+01 
       1.324762760349e-05       3.555897124122e+01 
       1.667777503602e-05       4.435556063256e+01 
       2.099607480503e-05       5.532816998158e+01 
       2.643249211999e-05       6.901500210636e+01 
       3.327653602690e-05       8.608729625253e+01 
       4.189267682075e-05       1.073821356184e+02 
       5.273975541772e-05       1.339432701340e+02 
       6.639541830718e-05       1.670718394379e+02 
       8.358687933361e-05       2.083892532608e+02 
       1.052296464857e-04       2.599148612181e+02 
       1.324762760349e-04       3.241613417147e+02 
       1.667777503602e-04       4.042507925213e+02 
       2.099607480503e-04       5.040539971860e+02 
       2.643249211999e-04       6.283537315594e+02 
       3.327653602690e-04       7.830294781409e+02 
       4.189267682075e-04       9.752547412579e+02 
       5.273975541772e-04       1.213689330727e+03 
       6.639541830718e-04       1.508639522110e+03 
       8.358687933361e-04       1.872150410508e+03 
       1.052296464857e-03       2.317971331655e+03 
       1.324762760349e-03       2.861247302147e+03 
       1.667777503602e-03       3.517663919132e+03 
       2.099607480503e-03       4.301843255441e+03 
       2.643249211999e-03       5.224796498569e+03 
       3.327653602690e-03       6.290151433292e+03 
       4.189267682075e-03       7.489220460234e+03 
       5.273975541772e-03       8.794513823954e+03 
       6.639541830718e-03       1.012637368819e+04 
       8.358687933361e-03       1.143826434022e+04 
       1.052296464857e-02       1.258352575719e+04 
       1.324762760349e-02       1.339055514908e+04 
       1.667777503600e-02       1.365601882906e+04 
       2.099607466661e-02       1.318899880120e+04 
       2.643238152337e-02       1.191481812558e+04 
       3.326061272664e-02       1.003349357292e+04 
       4.134369471730e-02       8.166592050649e+03 
       4.823447665123e-02       7.084576373859e+03 
       5.321887612962e-02       6.546394772686e+03 
       5.731699469665e-02       6.204078882386e+03 
       6.097026855181e-02       5.940736843038e+03 
       6.437444964952e-02       5.708631478871e+03 
       6.763271652548e-02       5.484440611668e+03 
       7.080675185195e-02       5.256232185107e+03 
       7.393698215320e-02       5.018690668256e+03 
       7.705184813701e-02       4.770954359006e+03 
       8.017253764536e-02       4.515359906581e+03 
       8.331561030801e-02       4.256490145892e+03 
       8.649455025392e-02       4.000305871116e+03 
       8.972073346260e-02       3.753303197557e+03 
       9.300405637768e-02       3.521714827769e+03 
       9.635335882910e-02       3.310802434181e+03 
       9.977671685408e-02       3.124289075499e+03 
       1.032816502843e-01       2.963963385493e+03 
       1.068752727509e-01       2.829465243413e+03 
       1.105644017185e-01       2.718253126209e+03 
       1.143556401045e-01       2.625761478676e+03 
       1.182554372770e-01       2.545781227405e+03 
       1.222701348330e-01       2.471111467044e+03 
       1.264060010078e-01       2.394506928664e+03 
       1.306692565461e-01       2.309857447378e+03 
       1.350660941859e-01       2.213397562648e+03 
       1.396026934579e-01       2.104615276651e+03 
       1.442852322006e-01       1.986502746301e+03 
       1.491198959959e-01       1.864933754923e+03 
       1.541128865995e-01       1.747241933814e+03 
       1.592704303612e-01       1.640377362548e+03 
       1.645987875772e-01       1.549169775992e+03 
       1.701042636859e-01       1.475152461885e+03 
       1.757932231969e-01       1.416198515675e+03 
       1.816721072310e-01       1.367056770703e+03 
       1.877474555395e-01       1.320785459020e+03 
       1.940259338663e-01       1.270903129879e+03 
       2.005143675184e-01       1.213672626626e+03 
       2.072197820264e-01       1.149524795874e+03 
       2.141494518043e-01       1.082737459469e+03 
       2.213109577823e-01       1.019340915533e+03 
       2.287122550759e-01       9.642773876603e+02 
       2.363617519112e-01       9.192360617975e+02 
       2.442684012368e-01       8.821184706661e+02 
       2.524418067635e-01       8.483141435167e+02 
       2.608923455915e-01       8.132508478682e+02 
       2.696313101535e-01       7.749453855628e+02 
       2.786710729578e-01       7.349178765805e+02 
       2.880252786169e-01       6.967269136427e+02 
       2.977090689727e-01       6.632180629068e+02 
       3.077393488829e-01       6.345793400882e+02 
       3.181351025679e-01       6.085504747685e+02 
       3.289177735555e-01       5.824918275023e+02 
       3.401117255087e-01       5.555759093065e+02 
       3.517448070533e-01       5.291312387622e+02 
       3.638490518296e-01       5.048932327423e+02 
       3.764615564162e-01       4.831173657139e+02 
       3.896255951552e-01       4.625527789802e+02 
       4.033920547634e-01       4.420974538025e+02 
       4.178213070366e-01       4.219919968438e+02 
       4.329856916001e-01       4.030733429569e+02 
       4.489728637259e-01       3.853711565767e+02 
       4.658903940334e-01       3.681948762211e+02 
       4.838722217256e-01       3.513219007949e+02 
       5.030879239125e-01       3.350857482320e+02 
       5.237563907093e-01       3.194279075402e+02 
       5.461666279075e-01       3.039994570504e+02 
       5.707105429856e-01       2.888056279896e+02 
       5.979367950995e-01       2.737703576821e+02 
       6.286436344163e-01       2.586412058207e+02 
       6.640483744293e-01       2.432613100002e+02 
       7.061182280220e-01       2.272903568642e+02 
       7.582675630483e-01       2.102735012503e+02 
       8.269463387786e-01       1.914566816712e+02 
       9.253958459741e-01       1.696532324438e+02 
       1.080736814400e+00       1.434914835730e+02 
       1.328600394207e+00       1.141443219249e+02 
       1.669561071230e+00       8.730254382662e+01 
       2.101792545242e+00       6.512152401287e+01 
       2.645999810116e+00       4.719891490218e+01 
       3.331116400426e+00       3.311736543425e+01 
       4.193627086141e+00       2.247595807241e+01 
       5.279463706331e+00       1.478700874628e+01 
       6.646451020545e+00       9.469474880713e+00 
       8.367386088010e+00       5.930058811763e+00 
       1.053391497649e+01       3.647526243620e+00 
