# Matter power spectrum P(k) at redshift z=0.5
# for k=2.08209e-07 to 10.4496 h/Mpc,
# number of wavenumbers equal to 139
#    1:k (h/Mpc)              2:P (Mpc/h)^3        
       2.082088878642e-07       7.321985535981e-01 
       2.621194598937e-07       9.133324040185e-01 
       3.299888489859e-07       1.139275782070e+00 
       4.154313475971e-07       1.421113825412e+00 
       5.229970803458e-07       1.772673951243e+00 
       6.584143147415e-07       2.211204250221e+00 
       8.288945123172e-07       2.758219703289e+00 
       1.043516365253e-06       3.440557736978e+00 
       1.313709269840e-06       4.291694902983e+00 
       1.653861983511e-06       5.353389276640e+00 
       2.082088878642e-06       6.677729146552e+00 
       2.621194598937e-06       8.329688493895e+00 
       3.299888489859e-06       1.039031461126e+01 
       4.154313475971e-06       1.296070419907e+01 
       5.229970803458e-06       1.616696290920e+01 
       6.584143147415e-06       2.016639145919e+01 
       8.288945123172e-06       2.515520141821e+01 
       1.043516365253e-05       3.137813841114e+01 
       1.313709269840e-05       3.914048333413e+01 
       1.653861983511e-05       4.882301725855e+01 
       2.082088878642e-05       6.090067814648e+01 
       2.621194598937e-05       7.596581263980e+01 
       3.299888489859e-05       9.475713987611e+01 
       4.154313475971e-05       1.181958013523e+02 
       5.229970803458e-05       1.474301728819e+02 
       6.584143147415e-05       1.838914547331e+02 
       8.288945123172e-05       2.293624094410e+02 
       1.043516365253e-04       2.860619194561e+02 
       1.313709269840e-04       3.567481533940e+02 
       1.653861983511e-04       4.448427874681e+02 
       2.082088878642e-04       5.545774308585e+02 
       2.621194598937e-04       6.911603267210e+02 
       3.299888489859e-04       8.609554112158e+02 
       4.154313475971e-04       1.071655950355e+03 
       5.229970803458e-04       1.332421964637e+03 
       6.584143147415e-04       1.653938996148e+03 
       8.288945123172e-04       2.048349599270e+03 
       1.043516365253e-03       2.528984205811e+03 
       1.313709269840e-03       3.109697155852e+03 
       1.653861983511e-03       3.803456223088e+03 
       2.082088878642e-03       4.620039258797e+03 
       2.621194598937e-03       5.562796342709e+03 
       3.299888489859e-03       6.624357569368e+03 
       4.154313475971e-03       7.781804433302e+03 
       5.229970803458e-03       8.991482161374e+03 
       6.584143147415e-03       1.018471415573e+04 
       8.288945123172e-03       1.126578981579e+04 
       1.043516365253e-02       1.211287750890e+04 
       1.313709269840e-02       1.258409672629e+04 
       1.653861983511e-02       1.253311487363e+04 
       2.082088877583e-02       1.184479007430e+04 
       2.621192987054e-02       1.050526701653e+04 
       3.299496011388e-02       8.699918321178e+03 
       4.133007845940e-02       6.881727837938e+03 
       4.947751451240e-02       5.690285171716e+03 
       5.532493292138e-02       5.115167737791e+03 
       5.994552659764e-02       4.761838765088e+03 
       6.397878920445e-02       4.492075972825e+03 
       6.769235011039e-02       4.256715433223e+03 
       7.122018962479e-02       4.034540540339e+03 
       7.463951784936e-02       3.816032449995e+03 
       7.799957490771e-02       3.597738439482e+03 
       8.133426728281e-02       3.379782004205e+03 
       8.466841460403e-02       3.164466325092e+03 
       8.802112899199e-02       2.955306390465e+03 
       9.140777551455e-02       2.756261033163e+03 
       9.484117446056e-02       2.571097518298e+03 
       9.833237259573e-02       2.402880149845e+03 
       1.018911565528e-01       2.253592334588e+03 
       1.055264051734e-01       2.123897327962e+03 
       1.092463374946e-01       2.013035605796e+03 
       1.130586909095e-01       1.918854424661e+03 
       1.169708512720e-01       1.837971286389e+03 
       1.209899490901e-01       1.766084792718e+03 
       1.251229312671e-01       1.698447979523e+03 
       1.293766148869e-01       1.630496238181e+03 
       1.337577276307e-01       1.558566267408e+03 
       1.382729381615e-01       1.480570161887e+03 
       1.429288789861e-01       1.396434797835e+03 
       1.477321637504e-01       1.308128317195e+03 
       1.526894005583e-01       1.219193611846e+03 
       1.578072026624e-01       1.133868627614e+03 
       1.630921977134e-01       1.056022471688e+03 
       1.685510366590e-01       9.881985531858e+02 
       1.741904033123e-01       9.310104504686e+02 
       1.800170255768e-01       8.830286195720e+02 
       1.860376892847e-01       8.411947047169e+02 
       1.922592555922e-01       8.017109520015e+02 
       1.986886828623e-01       7.612230310507e+02 
       2.053330539607e-01       7.179310724053e+02 
       2.121996098892e-01       6.721540523644e+02 
       2.192957906913e-01       6.260212234596e+02 
       2.266292845918e-01       5.823845167603e+02 
       2.342080863836e-01       5.434747730497e+02 
       2.420405661647e-01       5.099505480581e+02 
       2.501355496671e-01       4.807571286748e+02 
       2.585024116237e-01       4.538193426903e+02 
       2.671511839174e-01       4.272066684784e+02 
       2.760926806587e-01       4.001346676439e+02 
       2.853386428908e-01       3.731967128902e+02 
       2.949019063615e-01       3.476993632702e+02 
       3.047965967730e-01       3.246204080319e+02 
       3.150383582187e-01       3.039597388633e+02 
       3.256446222245e-01       2.849001679535e+02 
       3.366349270850e-01       2.665565962870e+02 
       3.480313002295e-01       2.486465321583e+02 
       3.598587204602e-01       2.315212216273e+02 
       3.721456825242e-01       2.156228780204e+02 
       3.849248942505e-01       2.009827251698e+02 
       3.982341473889e-01       1.872538152044e+02 
       4.121174188303e-01       1.741370670833e+02 
       4.266262814069e-01       1.616418377759e+02 
       4.418217366873e-01       1.499077109203e+02 
       4.577766321570e-01       1.389180715581e+02 
       4.745789019757e-01       1.285180019103e+02 
       4.923359913592e-01       1.186267855321e+02 
       5.111810198357e-01       1.092635710780e+02 
       5.312815632021e-01       1.004019578932e+02 
       5.528524915571e-01       9.196377019510e+01 
       5.761752942801e-01       8.391070386922e+01 
       6.016281680355e-01       7.621104946342e+01 
       6.297347362416e-01       6.880659071211e+01 
       6.612466469519e-01       6.164683180862e+01 
       6.972913978638e-01       5.466972855515e+01 
       7.396543161534e-01       4.780066968032e+01 
       7.913576393111e-01       4.094505990286e+01 
       8.579480164670e-01       3.398282249645e+01 
       9.505361245000e-01       2.677565551482e+01 
       1.092397403464e+00       1.930662244794e+01 
       1.322401737506e+00       1.224783000528e+01 
       1.656370860298e+00       7.105497679908e+00 
       2.084971437665e+00       4.039783346192e+00 
       2.624821638828e+00       2.278721573772e+00 
       3.304454660476e+00       1.276571045474e+00 
       4.160061944194e+00       7.107021966330e-01 
       5.237207696184e+00       3.934187117990e-01 
       6.593253855570e+00       2.166484255915e-01 
       8.300414825187e+00       1.187335811679e-01 
       1.044960315186e+01       6.478437617532e-02 
