# Matter power spectrum P(k) at redshift z=2
# for k=2.10381e-07 to 10.5567 h/Mpc,
# number of wavenumbers equal to 139
#    1:k (h/Mpc)              2:P (Mpc/h)^3        
       2.103805361357e-07       1.593563402517e-01 
       2.648534030881e-07       1.987784715555e-01 
       3.334306795477e-07       2.479529881030e-01 
       4.197643555544e-07       3.092924691283e-01 
       5.284520141729e-07       3.858063260987e-01 
       6.652816695560e-07       4.812484489053e-01 
       8.375399998050e-07       6.003013774577e-01 
       1.054400389149e-06       7.488060340417e-01 
       1.327411444105e-06       9.340482868548e-01 
       1.671111998890e-06       1.165116404171e+00 
       2.103805361357e-06       1.453346935035e+00 
       2.648534030881e-06       1.812880888952e+00 
       3.334306795477e-06       2.261357500574e+00 
       4.197643555544e-06       2.820779604500e+00 
       5.284520141729e-06       3.518593063382e+00 
       6.652816695560e-06       4.389033176887e+00 
       8.375399998050e-06       5.474804062244e+00 
       1.054400389149e-05       6.829173280118e+00 
       1.327411444105e-05       8.518584228419e+00 
       1.671111998890e-05       1.062591397720e+01 
       2.103805361357e-05       1.325453544917e+01 
       2.648534030881e-05       1.653338133049e+01 
       3.334306795477e-05       2.062325445263e+01 
       4.197643555544e-05       2.572468687633e+01 
       5.284520141729e-05       3.208771874833e+01 
       6.652816695560e-05       4.002404805883e+01 
       8.375399998050e-05       4.992209103629e+01 
       1.054400389149e-04       6.226558133431e+01 
       1.327411444105e-04       7.765640384020e+01 
       1.671111998890e-04       9.684236186081e+01 
       2.103805361357e-04       1.207504277608e+02 
       2.648534030881e-04       1.505255670249e+02 
       3.334306795477e-04       1.875741859389e+02 
       4.197643555544e-04       2.336092537475e+02 
       5.284520141729e-04       2.906908394773e+02 
       6.652816695560e-04       3.612513788188e+02 
       8.375399998050e-04       4.480911779078e+02 
       1.054400389149e-03       5.543295441348e+02 
       1.327411444105e-03       6.832969958401e+02 
       1.671111998890e-03       8.383262900564e+02 
       2.103805361357e-03       1.022328044918e+03 
       2.648534030881e-03       1.237073755324e+03 
       3.334306795477e-03       1.482281845265e+03 
       4.197643555544e-03       1.754466706107e+03 
       5.284520141729e-03       2.045540646190e+03 
       6.652816695560e-03       2.341367713215e+03 
       8.375399998050e-03       2.620532082487e+03 
       1.054400389149e-02       2.853496851625e+03 
       1.327411444105e-02       3.002897078680e+03 
       1.671111998889e-02       3.026600731640e+03 
       2.103805357299e-02       2.887266430665e+03 
       2.648529605151e-02       2.573552578468e+03 
       3.333485671752e-02       2.131735117234e+03 
       4.162273967492e-02       1.691673759897e+03 
       4.918159691796e-02       1.426187796826e+03 
       5.459443935279e-02       1.300894547004e+03 
       5.896292775016e-02       1.224741411367e+03 
       6.281923142812e-02       1.167396530245e+03 
       6.639243768416e-02       1.117224450598e+03 
       6.980036163060e-02       1.068807282260e+03 
       7.311221128472e-02       1.019500864748e+03 
       7.637275438368e-02       9.682164842939e+02 
       7.961316182221e-02       9.148787115175e+02 
       8.285645876726e-02       8.601128301753e+02 
       8.612051174680e-02       8.050110366812e+02 
       8.941977919442e-02       7.509247241318e+02 
       9.276639378386e-02       6.992708298379e+02 
       9.617086139013e-02       6.513563830657e+02 
       9.964252892455e-02       6.082315224628e+02 
       1.031899068766e-01       5.705797628370e+02 
       1.068208971752e-01       5.386488573695e+02 
       1.105429573853e-01       5.122212453205e+02 
       1.143632208927e-01       4.906219681890e+02 
       1.182885859166e-01       4.727652991076e+02 
       1.223257819668e-01       4.572487348711e+02 
       1.264814196963e-01       4.425055175632e+02 
       1.307620283693e-01       4.270195055024e+02 
       1.351740840292e-01       4.095826266856e+02 
       1.397240307023e-01       3.895438170839e+02 
       1.444182964677e-01       3.669732945269e+02 
       1.492633058946e-01       3.426697431710e+02 
       1.542654901241e-01       3.179789436280e+02 
       1.594312957344e-01       2.944596646327e+02 
       1.647671934322e-01       2.734910962446e+02 
       1.702796875583e-01       2.559338287177e+02 
       1.759753273596e-01       2.419278255583e+02 
       1.818607209566e-01       2.308654498051e+02 
       1.879425529190e-01       2.215493130742e+02 
       1.942276063559e-01       2.125279650024e+02 
       2.007227904173e-01       2.025571204287e+02 
       2.074351741077e-01       1.910434925575e+02 
       2.143720273231e-01       1.782617212899e+02 
       2.215408700536e-01       1.651965541619e+02 
       2.289495307469e-01       1.530610835944e+02 
       2.366062149253e-01       1.427335918241e+02 
       2.445195852905e-01       1.343881713023e+02 
       2.526988547642e-01       1.274734492404e+02 
       2.611538942171e-01       1.210382115911e+02 
       2.698953570516e-01       1.142593427584e+02 
       2.789348233691e-01       1.068912258830e+02 
       2.882849672032e-01       9.933906899439e+01 
       2.979597512969e-01       9.229477819123e+01 
       3.079746552179e-01       8.621355766522e+01 
       3.183469443485e-01       8.102196302996e+01 
       3.290959896089e-01       7.624809342086e+01 
       3.402436508749e-01       7.144509950749e+01 
       3.518147412640e-01       6.654576931008e+01 
       3.638375952154e-01       6.183289560096e+01 
       3.763447712822e-01       5.758366901000e+01 
       3.893739317840e-01       5.378132302244e+01 
       4.029689575268e-01       5.018690346359e+01 
       4.171813791230e-01       4.664489785389e+01 
       4.320722409660e-01       4.323011562587e+01 
       4.477145660291e-01       4.007142152661e+01 
       4.641966700471e-01       3.714389918023e+01 
       4.816267006785e-01       3.433528841734e+01 
       5.001389833710e-01       3.163029239811e+01 
       5.199031001846e-01       2.908136361555e+01 
       5.411372230874e-01       2.666801351549e+01 
       5.641282909139e-01       2.434347925995e+01 
       5.892636169603e-01       2.211616661513e+01 
       6.170824366287e-01       1.997500058601e+01 
       6.483640387660e-01       1.789324200113e+01 
       6.842870677682e-01       1.586088824964e+01 
       7.267369511921e-01       1.385079212651e+01 
       7.789455781041e-01       1.183563950079e+01 
       8.469316679126e-01       9.777014997898e+00 
       9.429107652029e-01       7.633786637574e+00 
       1.092282617220e+00       5.417666334812e+00 
       1.333196893164e+00       3.380854502993e+00 
       1.673229467404e+00       1.958092408086e+00 
       2.106340313386e+00       1.116228666169e+00 
       2.651724671124e+00       6.312722047012e-01 
       3.338323573032e+00       3.544874347712e-01 
       4.202700378881e+00       1.977813618195e-01 
       5.290886305130e+00       1.097023907993e-01 
       6.660831220443e+00       6.052156961542e-02 
       8.385489687087e+00       3.322455084970e-02 
       1.055670605741e+01       1.815646340748e-02 
