# Matter power spectrum P(k) at redshift z=2
# for k=2.03534e-07 to 10.2142 h/Mpc,
# number of wavenumbers equal to 139
#    1:k (h/Mpc)              2:P (Mpc/h)^3        
       2.035342711949e-07       2.251428320932e-01 
       2.562344661782e-07       2.808394569166e-01 
       3.225800808493e-07       3.503145083664e-01 
       4.061042611198e-07       4.369765419219e-01 
       5.112549741616e-07       5.450773335256e-01 
       6.436318788782e-07       6.799204778884e-01 
       8.102845281606e-07       8.481215913974e-01 
       1.020087783285e-06       1.057932883828e+00 
       1.284214432638e-06       1.319648023376e+00 
       1.616730183441e-06       1.646107160116e+00 
       2.035342711949e-06       2.053326877225e+00 
       2.562344661782e-06       2.561285983683e+00 
       3.225800808493e-06       3.194905688255e+00 
       4.061042611198e-06       3.985272245487e+00 
       5.112549741616e-06       4.971162029480e+00 
       6.436318788782e-06       6.200943843989e+00 
       8.102845281606e-06       7.734951726362e+00 
       1.020087783285e-05       9.648444549788e+00 
       1.284214432638e-05       1.203529739299e+01 
       1.616730183441e-05       1.501260530734e+01 
       2.035342711949e-05       1.872642447707e+01 
       2.562344661782e-05       2.335893059450e+01 
       3.225800808493e-05       2.913734215782e+01 
       4.061042611198e-05       3.634503943641e+01 
       5.112549741616e-05       4.533541079266e+01 
       6.436318788782e-05       5.654907843218e+01 
       8.102845281606e-05       7.053529489085e+01 
       1.020087783285e-04       8.797845448159e+01 
       1.284214432638e-04       1.097308135233e+02 
       1.616730183441e-04       1.368526217891e+02 
       2.035342711949e-04       1.706608563603e+02 
       2.562344661782e-04       2.127874681829e+02 
       3.225800808493e-04       2.652472418649e+02 
       4.061042611198e-04       3.305136453153e+02 
       5.112549741616e-04       4.115979889896e+02 
       6.436318788782e-04       5.121227828153e+02 
       8.102845281606e-04       6.363754809473e+02 
       1.020087783285e-03       7.893258082770e+02 
       1.284214432638e-03       9.765843701727e+02 
       1.616730183441e-03       1.204246764464e+03 
       2.035342711949e-03       1.478492231151e+03 
       2.562344661782e-03       1.804821188860e+03 
       3.225800808493e-03       2.186927567559e+03 
       4.061042611198e-03       2.625050296082e+03 
       5.112549741616e-03       3.109843644774e+03 
       6.436318788782e-03       3.633129251328e+03 
       8.102845281606e-03       4.166180230818e+03 
       1.020087783285e-02       4.667670717038e+03 
       1.284214432638e-02       5.079145125126e+03 
       1.616730183357e-02       5.327749903207e+03 
       2.035342486959e-02       5.340483922388e+03 
       2.562258087364e-02       5.078566786774e+03 
       3.218933199182e-02       4.592022960639e+03 
       3.926326313814e-02       4.092798087185e+03 
       4.454051624497e-02       3.789492335476e+03 
       4.855771155699e-02       3.594524335187e+03 
       5.199167860726e-02       3.444159357862e+03 
       5.511721558642e-02       3.314229999025e+03 
       5.806562590417e-02       3.193639849703e+03 
       6.091009463850e-02       3.076676805826e+03 
       6.369616943374e-02       2.960405802851e+03 
       6.645462768025e-02       2.843587474851e+03 
       6.920765644732e-02       2.726134184298e+03 
       7.197212288050e-02       2.608768630567e+03 
       7.476143902307e-02       2.492758776476e+03 
       7.758668974627e-02       2.379679754416e+03 
       8.045734820717e-02       2.271185585378e+03 
       8.338174769503e-02       2.168793315819e+03 
       8.636740298412e-02       2.073688842069e+03 
       8.942123508448e-02       1.986566489915e+03 
       9.254973188675e-02       1.907516725234e+03 
       9.575906500532e-02       1.835975137041e+03 
       9.905517591165e-02       1.770745928887e+03 
       1.024438400450e-01       1.710110647104e+03 
       1.059307148244e-01       1.652027810935e+03 
       1.095213757128e-01       1.594416469465e+03 
       1.132213433292e-01       1.535493429191e+03 
       1.170361038389e-01       1.474108606814e+03 
       1.209711243428e-01       1.409999087408e+03 
       1.250318646522e-01       1.343879733869e+03 
       1.292237866051e-01       1.277315177893e+03 
       1.335523619385e-01       1.212372980323e+03 
       1.380230796330e-01       1.151127279867e+03 
       1.426414535881e-01       1.095133583095e+03 
       1.474130314478e-01       1.045015625808e+03 
       1.523434053743e-01       1.000284572281e+03 
       1.574382255503e-01       9.594639965939e+02 
       1.627032171827e-01       9.205235802386e+02 
       1.681442017724e-01       8.815298992492e+02 
       1.737671234134e-01       8.413133111867e+02 
       1.795780808902e-01       7.998820336374e+02 
       1.855833663606e-01       7.583668146739e+02 
       1.917895114468e-01       7.184778399917e+02 
       1.982033416225e-01       6.817054213487e+02 
       2.048320398852e-01       6.486424351580e+02 
       2.116832208592e-01       6.187578039362e+02 
       2.187650166918e-01       5.907382845566e+02 
       2.260861764194e-01       5.632335039206e+02 
       2.336561808940e-01       5.355954633127e+02 
       2.414853759311e-01       5.081568436864e+02 
       2.495851270818e-01       4.818604641502e+02 
       2.579680004294e-01       4.575101383249e+02 
       2.666479751151e-01       4.351970486431e+02 
       2.756406950402e-01       4.143152529413e+02 
       2.849637695100e-01       3.941156064936e+02 
       2.946371357171e-01       3.743080300157e+02 
       3.046835002172e-01       3.551798146708e+02 
       3.151288824275e-01       3.371616358616e+02 
       3.260032913886e-01       3.203274390652e+02 
       3.373415786811e-01       3.043545890277e+02 
       3.491845271939e-01       2.889265399704e+02 
       3.615802601065e-01       2.740463027077e+02 
       3.745860913515e-01       2.598846713586e+02 
       3.882709952071e-01       2.464431772168e+02 
       4.027189608002e-01       2.335417807986e+02 
       4.180336386258e-01       2.210827035943e+02 
       4.343449192519e-01       2.091016889582e+02 
       4.518184810983e-01       1.975689240698e+02 
       4.706700438136e-01       1.863758077630e+02 
       4.911873480868e-01       1.754736052131e+02 
       5.137653500511e-01       1.648120145032e+02 
       5.389651100946e-01       1.542890088528e+02 
       5.676175648008e-01       1.438088949120e+02 
       6.010179020021e-01       1.332291971434e+02 
       6.413165127660e-01       1.223533281815e+02 
       6.923699400125e-01       1.108852951194e+02 
       7.617283229465e-01       9.837792515938e+01 
       8.651968110897e-01       8.424869275766e+01 
       1.032446895261e+00       6.840217560040e+01 
       1.286422578431e+00       5.308152678257e+01 
       1.618843655849e+00       4.066539567632e+01 
       2.037996357793e+00       3.081678395696e+01 
       2.565685390819e+00       2.293098050708e+01 
       3.230006537169e+00       1.665084113393e+01 
       4.066337309903e+00       1.174504749987e+01 
       5.119215372364e+00       8.025977510482e+00 
       6.444710320716e+00       5.312013125002e+00 
       8.113409594401e+00       3.413692960720e+00 
       1.021417751469e+01       2.139054859508e+00 
