# Matter power spectrum P(k) at redshift z=2
# for k=2.10412e-07 to 10.5584 h/Mpc,
# number of wavenumbers equal to 139
#    1:k (h/Mpc)              2:P (Mpc/h)^3        
       2.104116238004e-07       1.935374817346e-01 
       2.648925401392e-07       2.414154638982e-01 
       3.334799501760e-07       3.011376693414e-01 
       4.198263836004e-07       3.756341635435e-01 
       5.285301028562e-07       4.685598617705e-01 
       6.653799773839e-07       5.844738445513e-01 
       8.376637620276e-07       7.290630333884e-01 
       1.054556196556e-06       9.094211991921e-01 
       1.327607594009e-06       1.134396992576e+00 
       1.671358936989e-06       1.415028069902e+00 
       2.104116238004e-06       1.765082613170e+00 
       2.648925401392e-06       2.201734807840e+00 
       3.334799501760e-06       2.746407415294e+00 
       4.198263836004e-06       3.425822766468e+00 
       5.285301028562e-06       4.273313721569e+00 
       6.653799773839e-06       5.330458872615e+00 
       8.376637620276e-06       6.649122142282e+00 
       1.054556196556e-05       8.293996690037e+00 
       1.327607594009e-05       1.034577762858e+01 
       1.671358936989e-05       1.290511862908e+01 
       2.104116238004e-05       1.609756535749e+01 
       2.648925401392e-05       2.007970545573e+01 
       3.334799501760e-05       2.504683224455e+01 
       4.198263836004e-05       3.124248910338e+01 
       5.285301028562e-05       3.897034497794e+01 
       6.653799773839e-05       4.860894845117e+01 
       8.376637620276e-05       6.063001515746e+01 
       1.054556196556e-04       7.562100968454e+01 
       1.327607594009e-04       9.431286401090e+01 
       1.671358936989e-04       1.176136748430e+02 
       2.104116238004e-04       1.466490362979e+02 
       2.648925401392e-04       1.828090947271e+02 
       3.334799501760e-04       2.278011317016e+02 
       4.198263836004e-04       2.837040218063e+02 
       5.285301028562e-04       3.530168479069e+02 
       6.653799773839e-04       4.386885367932e+02 
       8.376637620276e-04       5.441107486557e+02 
       1.054556196556e-03       6.730562204042e+02 
       1.327607594009e-03       8.295450324649e+02 
       1.671358936989e-03       1.017587485196e+03 
       2.104116238004e-03       1.240664217393e+03 
       2.648925401392e-03       1.500850484192e+03 
       3.334799501760e-03       1.797704880918e+03 
       4.198263836004e-03       2.126876528679e+03 
       5.285301028562e-03       2.478422524471e+03 
       6.653799773839e-03       2.833837048919e+03 
       8.376637620276e-03       3.169127012077e+03 
       1.054556196556e-02       3.447700924849e+03 
       1.327607594009e-02       3.624609700570e+03 
       1.671358936988e-02       3.649441241834e+03 
       2.104116234317e-02       3.477839285844e+03 
       2.648921281553e-02       3.096875554625e+03 
       3.334019955259e-02       2.562741386154e+03 
       4.164111168954e-02       2.031301203284e+03 
       4.925123804494e-02       1.710170754079e+03 
       5.469902215746e-02       1.559477931414e+03 
       5.908917747631e-02       1.468400763203e+03 
       6.296156219500e-02       1.400031667950e+03 
       6.654806503761e-02       1.340284172438e+03 
       6.996771224879e-02       1.282622064715e+03 
       7.329032743716e-02       1.223865239010e+03 
       7.656103046835e-02       1.162711388098e+03 
       7.981121225388e-02       1.099079662942e+03 
       8.306404525229e-02       1.033732554191e+03 
       8.633750030411e-02       9.679928489023e+02 
       8.964611331651e-02       9.034921033221e+02 
       9.300207693348e-02       8.419363981266e+02 
       9.641594518587e-02       7.848947337408e+02 
       9.989710494621e-02       7.336227057978e+02 
       1.034541008593e-01       6.889319114315e+02 
       1.070948648291e-01       6.511087477611e+02 
       1.108268813504e-01       6.198808632105e+02 
       1.146573085054e-01       5.944280749243e+02 
       1.185930675648e-01       5.734390766685e+02 
       1.226409098809e-01       5.552241923867e+02 
       1.268074670647e-01       5.378983609437e+02 
       1.310992886964e-01       5.196393614729e+02 
       1.355228706774e-01       4.989980860220e+02 
       1.400846765703e-01       4.751990626582e+02 
       1.447911537703e-01       4.483383330527e+02 
       1.496487460162e-01       4.193900836605e+02 
       1.546639035245e-01       3.899840798575e+02 
       1.598430918886e-01       3.619989581798e+02 
       1.651928007932e-01       3.370880199385e+02 
       1.707195535319e-01       3.162737628999e+02 
       1.764299182857e-01       2.997101261134e+02 
       1.823305220935e-01       2.866549442583e+02 
       1.884280684303e-01       2.756620777738e+02 
       1.947293593029e-01       2.649852637390e+02 
       2.012413227611e-01       2.531328356911e+02 
       2.079710467295e-01       2.394018689732e+02 
       2.149258200732e-01       2.241370402341e+02 
       2.221131818403e-01       2.085343331433e+02 
       2.295409796819e-01       1.940544866513e+02 
       2.372174385403e-01       1.817448116024e+02 
       2.451512408437e-01       1.718015104788e+02 
       2.533516196569e-01       1.635521156317e+02 
       2.618284665383e-01       1.558512099699e+02 
       2.705924562735e-01       1.477153414767e+02 
       2.796551912130e-01       1.388603655343e+02 
       2.890293686971e-01       1.297829740633e+02 
       2.987289760444e-01       1.213159688773e+02 
       3.087695188974e-01       1.139990468899e+02 
       3.191682904603e-01       1.077354477322e+02 
       3.299446914823e-01       1.019558108205e+02 
       3.411206139448e-01       9.612833547526e+01 
       3.527209056156e-01       9.017984333077e+01 
       3.647739383835e-01       8.445294558742e+01 
       3.773123112664e-01       7.927668844771e+01 
       3.903737302064e-01       7.462592846751e+01 
       4.040021227953e-01       7.021379606446e+01 
       4.182490693633e-01       6.585785411023e+01 
       4.331756663200e-01       6.165024710113e+01 
       4.488549896312e-01       5.774329774501e+01 
       4.653754065167e-01       5.410455232604e+01 
       4.828451101312e-01       5.060039883993e+01 
       5.013984574811e-01       4.721398396586e+01 
       5.212050341548e-01       4.400663117265e+01 
       5.424829623726e-01       4.095202105678e+01 
       5.655190318306e-01       3.799403771484e+01 
       5.907002207029e-01       3.514115075351e+01 
       6.185650747219e-01       3.237735377676e+01 
       6.498914953525e-01       2.966781790640e+01 
       6.858553044786e-01       2.699546768120e+01 
       7.283359846949e-01       2.432038963008e+01 
       7.805522306211e-01       2.159752195966e+01 
       8.484917187577e-01       1.875966999739e+01 
       9.442957508339e-01       1.571954534015e+01 
       1.093230025473e+00       1.242982272579e+01 
       1.333579532194e+00       9.161690545228e+00 
       1.673508673926e+00       6.581141827645e+00 
       2.106684113552e+00       4.779057350013e+00 
       2.652157435005e+00       3.503601626367e+00 
       3.338868390421e+00       2.575021410582e+00 
       4.203386263338e+00       1.883323744047e+00 
       5.291749782502e+00       1.361060429202e+00 
       6.661918274048e+00       9.659694370179e-01 
       8.386858206495e+00       6.700810116592e-01 
       1.055842892127e+01       4.529863942870e-01 
