# Matter power spectrum P(k) at redshift z=2
# for k=2.08936e-07 to 10.4843 h/Mpc,
# number of wavenumbers equal to 139
#    1:k (h/Mpc)              2:P (Mpc/h)^3        
       2.089358499766e-07       2.431395588343e-01 
       2.630346509704e-07       3.022216860628e-01 
       3.311410062890e-07       3.756605792821e-01 
       4.168818277043e-07       4.669448860667e-01 
       5.248231266122e-07       5.804109842040e-01 
       6.607131707893e-07       7.214489768731e-01 
       8.317886006138e-07       8.967587446080e-01 
       1.047159806553e-06       1.114668216534e+00 
       1.318296090680e-06       1.385528980195e+00 
       1.659636448825e-06       1.722208022782e+00 
       2.089358499766e-06       2.140698961819e+00 
       2.630346509704e-06       2.660881801067e+00 
       3.311410062890e-06       3.307467299672e+00 
       4.168818277043e-06       4.111170808171e+00 
       5.248231266122e-06       5.110171323007e+00 
       6.607131707893e-06       6.351925045455e+00 
       8.317886006138e-06       7.895419552714e+00 
       1.047159806553e-05       9.813975559826e+00 
       1.318296090680e-05       1.219872920567e+01 
       1.659636448825e-05       1.516295989191e+01 
       2.089358499766e-05       1.884746858829e+01 
       2.630346509704e-05       2.342726067281e+01 
       3.311410062890e-05       2.911984801034e+01 
       4.168818277043e-05       3.619555923489e+01 
       5.248231266122e-05       4.499033732261e+01 
       6.607131707893e-05       5.592161140658e+01 
       8.317886006138e-05       6.950795557098e+01 
       1.047159806553e-04       8.639338779541e+01 
       1.318296090680e-04       1.073773057352e+02 
       1.659636448825e-04       1.334511753070e+02 
       2.089358499766e-04       1.658431256518e+02 
       2.630346509704e-04       2.060714490463e+02 
       3.311410062890e-04       2.560074648707e+02 
       4.168818277043e-04       3.179469903995e+02 
       5.248231266122e-04       3.946874409569e+02 
       6.607131707893e-04       4.896042686379e+02 
       8.317886006138e-04       6.067167232104e+02 
       1.047159806553e-03       7.507299846146e+02 
       1.318296090680e-03       9.270351625094e+02 
       1.659636448825e-03       1.141618595266e+03 
       2.089358499766e-03       1.400774416943e+03 
       2.630346509704e-03       1.710525183171e+03 
       3.311410062890e-03       2.075664283134e+03 
       4.168818277043e-03       2.498306531655e+03 
       5.248231266122e-03       2.975669797376e+03 
       6.607131707893e-03       3.496990988743e+03 
       8.317886006138e-03       4.039495530593e+03 
       1.047159806553e-02       4.563488149483e+03 
       1.318296090680e-02       5.007789400669e+03 
       1.659636448779e-02       5.289329418474e+03 
       2.089358356519e-02       5.316053667518e+03 
       2.630284016256e-02       5.027177406452e+03 
       3.305915736868e-02       4.466870560628e+03 
       4.049453549527e-02       3.883706011632e+03 
       4.614145587450e-02       3.546414673687e+03 
       5.039656647606e-02       3.351749340414e+03 
       5.401139755949e-02       3.215609909494e+03 
       5.729050768159e-02       3.106101340955e+03 
       6.037754487205e-02       3.008132039108e+03 
       6.335182599393e-02       2.913343892492e+03 
       6.626237954768e-02       2.816836500749e+03 
       6.914216240877e-02       2.715898304782e+03 
       7.201483314769e-02       2.609435544499e+03 
       7.489831459047e-02       2.497652965009e+03 
       7.780681556897e-02       2.381810742171e+03 
       8.075204911893e-02       2.263980689415e+03 
       8.374400280529e-02       2.146774577395e+03 
       8.679144545952e-02       2.033042197853e+03 
       8.990227156820e-02       1.925556361037e+03 
       9.308374171632e-02       1.826707241616e+03 
       9.634265420615e-02       1.738231674087e+03 
       9.968546974330e-02       1.660998868116e+03 
       1.031184032749e-01       1.594868476513e+03 
       1.066474923074e-01       1.538636823725e+03 
       1.102786480523e-01       1.490091382722e+03 
       1.140176938398e-01       1.446200074856e+03 
       1.178703939962e-01       1.403460438865e+03 
       1.218424755599e-01       1.358411401924e+03 
       1.259396446642e-01       1.308258409335e+03 
       1.301675990527e-01       1.251491949476e+03 
       1.345320379485e-01       1.188322406480e+03 
       1.390386703446e-01       1.120752613310e+03 
       1.436932226778e-01       1.052192296550e+03 
       1.485014467839e-01       9.866649041849e+02 
       1.534691289945e-01       9.278059842829e+02 
       1.586021012056e-01       8.779233415058e+02 
       1.639062547373e-01       8.373630272523e+02 
       1.693875577893e-01       8.043469716378e+02 
       1.750520772902e-01       7.753798135041e+02 
       1.809060059395e-01       7.462442494572e+02 
       1.869556952409e-01       7.134191485564e+02 
       1.932076953488e-01       6.754520823983e+02 
       1.996688025818e-01       6.336106718609e+02 
       2.063461155239e-01       5.913365580390e+02 
       2.132471007372e-01       5.526508351977e+02 
       2.203796692656e-01       5.202791891353e+02 
       2.277522653356e-01       4.944077154353e+02 
       2.353739689731e-01       4.726528960553e+02 
       2.432546146856e-01       4.513381692338e+02 
       2.514049289351e-01       4.275794583515e+02 
       2.598366898926e-01       4.010145374350e+02 
       2.685629139782e-01       3.738961796328e+02 
       2.775980750325e-01       3.493334376056e+02 
       2.869583637381e-01       3.289734599052e+02 
       2.966619972885e-01       3.118774171828e+02 
       3.067295924895e-01       2.954418510354e+02 
       3.171846198296e-01       2.776972647169e+02 
       3.280539620403e-01       2.590003856499e+02 
       3.393686090295e-01       2.413948689826e+02 
       3.511645329225e-01       2.262699600088e+02 
       3.634838040170e-01       2.129031945802e+02 
       3.763760334835e-01       1.995311440355e+02 
       3.899002660317e-01       1.856313434615e+02 
       4.041275027956e-01       1.723712899755e+02 
       4.191441236911e-01       1.605923182063e+02 
       4.350566209296e-01       1.495189415002e+02 
       4.519982897818e-01       1.382960464449e+02 
       4.701389207236e-01       1.274592357868e+02 
       4.896992371855e-01       1.174725661228e+02 
       5.109731043683e-01       1.076886211842e+02 
       5.343629874850e-01       9.804983677954e+01 
       5.604390807988e-01       8.886079696395e+01 
       5.900430862915e-01       7.971608589088e+01 
       6.244816868793e-01       7.071452014562e+01 
       6.659135764443e-01       6.163293057321e+01 
       7.181870567644e-01       5.236505900100e+01 
       7.887888315544e-01       4.267674308081e+01 
       8.933570693914e-01       3.240526658596e+01 
       1.061903580265e+00       2.196321045014e+01 
       1.320629000706e+00       1.330982048591e+01 
       1.661665318187e+00       7.765654584382e+00 
       2.091901923171e+00       4.478720455393e+00 
       2.633548467067e+00       2.559101914795e+00 
       3.315441088377e+00       1.450031570647e+00 
       4.173893037464e+00       8.153964370567e-01 
       5.254620010974e+00       4.553715148162e-01 
       6.615174661137e+00       2.527180622320e-01 
       8.328011484362e+00       1.394491128210e-01 
       1.048434528738e+01       7.654403821964e-02 
