# Matter power spectrum P(k) at redshift z=2.5
# for k=2.0826e-07 to 10.4485 h/Mpc,
# number of wavenumbers equal to 139
#    1:k (h/Mpc)              2:P (Mpc/h)^3        
       2.082603385042e-07       1.547030140812e-01 
       2.621842324118e-07       1.929739892445e-01 
       3.300703927550e-07       2.407125725881e-01 
       4.155340051201e-07       3.002608943338e-01 
       5.231263185104e-07       3.745404888052e-01 
       6.585770159510e-07       4.671956297942e-01 
       8.290993410043e-07       5.827721236635e-01 
       1.043774229292e-06       7.269403339779e-01 
       1.314033901432e-06       9.067733769889e-01 
       1.654270670471e-06       1.131094139595e+00 
       2.082603385042e-06       1.410908139299e+00 
       2.621842324118e-06       1.759943467341e+00 
       3.300703927550e-06       2.195324297217e+00 
       4.155340051202e-06       2.738411001578e+00 
       5.231263185104e-06       3.415848075899e+00 
       6.585770159510e-06       4.260871267012e+00 
       8.290993410043e-06       5.314937983893e+00 
       1.043774229292e-05       6.629760901711e+00 
       1.314033901432e-05       8.269844329365e+00 
       1.654270670471e-05       1.031564747335e+01 
       2.082603385042e-05       1.286752904000e+01 
       2.621842324118e-05       1.605066539509e+01 
       3.300703927550e-05       2.002118082446e+01 
       4.155340051202e-05       2.497378533748e+01 
       5.231263185104e-05       3.115128415486e+01 
       6.585770159510e-05       3.885640471179e+01 
       8.290993410043e-05       4.846648024723e+01 
       1.043774229292e-04       6.045162996223e+01 
       1.314033901432e-04       7.539716947568e+01 
       1.654270670471e-04       9.403104293691e+01 
       2.082603385042e-04       1.172570261122e+02 
       2.621842324118e-04       1.461941900940e+02 
       3.300703927550e-04       1.822224286257e+02 
       4.155340051202e-04       2.270324185334e+02 
       5.231263185104e-04       2.826758269414e+02 
       6.585770159510e-04       3.516077819378e+02 
       8.290993410043e-04       4.367094689535e+02 
       1.043774229292e-03       5.412765822574e+02 
       1.314033901432e-03       6.689591621796e+02 
       1.654270670471e-03       8.236228642441e+02 
       2.082603385042e-03       1.009040926098e+03 
       2.621842324118e-03       1.228298656380e+03 
       3.300703927550e-03       1.482939020048e+03 
       4.155340051202e-03       1.771823674487e+03 
       5.231263185104e-03       2.088463567334e+03 
       6.585770159510e-03       2.423010984372e+03 
       8.290993410043e-03       2.754948929534e+03 
       1.043774229292e-02       3.054288562530e+03 
       1.314033901432e-02       3.279779845648e+03 
       1.654270670464e-02       3.381068129697e+03 
       2.082603348921e-02       3.309000554941e+03 
       2.621819801425e-02       3.040830949480e+03 
       3.298053980491e-02       2.619919369907e+03 
       4.079315492467e-02       2.198364855275e+03 
       4.711776421175e-02       1.955098433238e+03 
       5.175867350107e-02       1.824765951584e+03 
       5.562798675591e-02       1.736772335235e+03 
       5.910287331422e-02       1.666555130211e+03 
       6.235480563343e-02       1.603567634215e+03 
       6.547592218652e-02       1.542485667920e+03 
       6.852207050612e-02       1.480520473630e+03 
       7.153023519753e-02       1.416399995198e+03 
       7.452665113386e-02       1.349895803513e+03 
       7.753099663739e-02       1.281543349963e+03 
       8.055874092669e-02       1.212426797866e+03 
       8.362254330852e-02       1.143978635120e+03 
       8.673313020223e-02       1.077781564337e+03 
       8.989986790765e-02       1.015376018125e+03 
       9.313114954771e-02       9.580834921206e+02 
       9.643466389226e-02       9.068583852836e+02 
       9.981758646409e-02       8.621777770138e+02 
       1.032867179411e-01       8.239746619921e+02 
       1.068485858520e-01       7.916192529157e+02 
       1.105095201000e-01       7.639540337634e+02 
       1.142757094477e-01       7.393931406547e+02 
       1.181532439219e-01       7.160965750303e+02 
       1.221481466904e-01       6.922219826339e+02 
       1.262663980292e-01       6.662328030653e+02 
       1.305139533841e-01       6.372079980545e+02 
       1.348967571174e-01       6.050694558388e+02 
       1.394207532577e-01       5.706389669263e+02 
       1.440918943924e-01       5.354739733164e+02 
       1.489161497230e-01       5.015001718165e+02 
       1.538995132342e-01       4.705335602426e+02 
       1.590480128760e-01       4.438226736514e+02 
       1.643677216346e-01       4.217306721974e+02 
       1.698647713454e-01       4.036344236691e+02 
       1.755453700909e-01       3.880770471457e+02 
       1.814158240181e-01       3.731757126845e+02 
       1.874825644062e-01       3.572205407810e+02 
       1.937521808190e-01       3.392873842627e+02 
       2.002314611915e-01       3.195930070035e+02 
       2.069274397330e-01       2.993720890131e+02 
       2.138474535916e-01       2.802877645232e+02 
       2.209992093216e-01       2.636557690916e+02 
       2.283908603471e-01       2.498618116840e+02 
       2.360310968359e-01       2.382380765453e+02 
       2.439292497015e-01       2.274552129903e+02 
       2.520954108783e-01       2.162635586569e+02 
       2.605405725763e-01       2.041950132191e+02 
       2.692767889824e-01       1.917664710715e+02 
       2.783173648724e-01       1.800157708885e+02 
       2.876770769212e-01       1.697107407799e+02 
       2.973724352498e-01       1.608255499700e+02 
       3.074219950856e-01       1.526547502978e+02 
       3.178467315483e-01       1.444500814732e+02 
       3.286704948366e-01       1.360394952535e+02 
       3.399205689458e-01       1.278642290179e+02 
       3.516283652012e-01       1.204228599519e+02 
       3.638302934109e-01       1.137354698691e+02 
       3.765688699884e-01       1.073970898258e+02 
       3.898941465561e-01       1.011046469419e+02 
       4.038655785004e-01       9.497614634810e+01 
       4.185545075698e-01       8.926709832909e+01 
       4.340475174412e-01       8.395195558075e+01 
       4.504510562408e-01       7.881042332391e+01 
       4.678979409991e-01       7.380390465847e+01 
       4.865567318530e-01       6.904722952727e+01 
       5.066456147844e-01       6.450457503662e+01 
       5.284536132242e-01       6.007441438622e+01 
       5.523741897143e-01       5.578004241433e+01 
       5.789607664991e-01       5.159666385528e+01 
       6.090231213923e-01       4.746350686587e+01 
       6.438048192394e-01       4.335569305615e+01 
       6.853329476913e-01       3.920074008182e+01 
       7.371630657013e-01       3.491725860406e+01 
       8.060916490145e-01       3.037967821635e+01 
       9.061853748904e-01       2.543427131277e+01 
       1.065692070030e+00       2.005905419247e+01 
       1.316914712673e+00       1.492198325517e+01 
       1.655995027740e+00       1.099064073327e+01 
       2.084743505703e+00       8.156451814411e+00 
       2.624536481819e+00       6.063640014523e+00 
       3.304095671103e+00       4.481749160262e+00 
       4.159610003351e+00       3.270315837119e+00 
       5.236638736372e+00       2.341872025132e+00 
       6.592537577604e+00       1.638279975525e+00 
       8.299513084654e+00       1.116246054061e+00 
       1.044846792779e+01       7.396310726074e-01 
