# Matter power spectrum P(k) at redshift z=1
# for k=2.08826e-07 to 10.4792 h/Mpc,
# number of wavenumbers equal to 139
#    1:k (h/Mpc)              2:P (Mpc/h)^3        
       2.088263447743e-07       4.393015460600e-01 
       2.628967920885e-07       5.479775061138e-01 
       3.309674522394e-07       6.835381068180e-01 
       4.166633361009e-07       8.526341650108e-01 
       5.245480619804e-07       1.063561799604e+00 
       6.603668849344e-07       1.326669452201e+00 
       8.313526525513e-07       1.654865597609e+00 
       1.046610980459e-06       2.064252053057e+00 
       1.317605159563e-06       2.574913957107e+00 
       1.658766618085e-06       3.211905175013e+00 
       2.088263447743e-06       4.006477474365e+00 
       2.628967920885e-06       4.997613773290e+00 
       3.309674522394e-06       6.233940678346e+00 
       4.166633361009e-06       7.776114133612e+00 
       5.245480619804e-06       9.699795196642e+00 
       6.603668849344e-06       1.209936189478e+01 
       8.313526525513e-06       1.509253917287e+01 
       1.046610980459e-05       1.882617390262e+01 
       1.317605159563e-05       2.348343790791e+01 
       1.658766618085e-05       2.929281168091e+01 
       2.088263447743e-05       3.653928809399e+01 
       2.628967920885e-05       4.557834293257e+01 
       3.309674522394e-05       5.685335204963e+01 
       4.166633361009e-05       7.091729854001e+01 
       5.245480619804e-05       8.845981302720e+01 
       6.603668849344e-05       1.103408304848e+02 
       8.313526525513e-05       1.376324298989e+02 
       1.046610980459e-04       1.716707427818e+02 
       1.317605159563e-04       2.141201515365e+02 
       1.658766618085e-04       2.670522957068e+02 
       2.088263447743e-04       3.330425505602e+02 
       2.628967920885e-04       4.152864278303e+02 
       3.309674522394e-04       5.177374239782e+02 
       4.166633361009e-04       6.452657368118e+02 
       5.245480619804e-04       8.038336001498e+02 
       6.603668849344e-04       1.000677956622e+03 
       8.313526525513e-04       1.244485691056e+03 
       1.046610980459e-03       1.545538169998e+03 
       1.317605159563e-03       1.915772132461e+03 
       1.658766618085e-03       2.368614842068e+03 
       2.088263447743e-03       2.918453710053e+03 
       2.628967920885e-03       3.579542261968e+03 
       3.309674522394e-03       4.364065087794e+03 
       4.166633361009e-03       5.279110237246e+03 
       5.245480619804e-03       6.321911106088e+03 
       6.603668849344e-03       7.473035122327e+03 
       8.313526525513e-03       8.687197247779e+03 
       1.046610980459e-02       9.881679962017e+03 
       1.317605159563e-02       1.092483110023e+04 
       1.658766618027e-02       1.163290714709e+04 
       2.088263277065e-02       1.179575704100e+04 
       2.628896814658e-02       1.126395068057e+04 
       3.303654424512e-02       1.011499373909e+04 
       4.040623988912e-02       8.886688651076e+03 
       4.596486974205e-02       8.167674867485e+03 
       5.016900693959e-02       7.746320476992e+03 
       5.374876979931e-02       7.449074308870e+03 
       5.700011403288e-02       7.208814171070e+03 
       6.006329696747e-02       6.993239259901e+03 
       6.301603179322e-02       6.784189443328e+03 
       6.590647636970e-02       6.570845933120e+03 
       6.876706453438e-02       6.347091580458e+03 
       7.162111535335e-02       6.110329392136e+03 
       7.448631721325e-02       5.860830620660e+03 
       7.737670850954e-02       5.601238276796e+03 
       8.030387277415e-02       5.336061972913e+03 
       8.327769527256e-02       5.071098796664e+03 
       8.630686117671e-02       4.812776702058e+03 
       8.939919439517e-02       4.567451931835e+03 
       9.256189428682e-02       4.340712890965e+03 
       9.580170470529e-02       4.136747908805e+03 
       9.912503686495e-02       3.957828790817e+03 
       1.025380598663e-01       3.803951925701e+03 
       1.060467680516e-01       3.672677013360e+03 
       1.096570314360e-01       3.559211705531e+03 
       1.133746335869e-01       3.456805399078e+03 
       1.172053000993e-01       3.357512210672e+03 
       1.211547200104e-01       3.253336586361e+03 
       1.252285619579e-01       3.137660737055e+03 
       1.294324865299e-01       3.006693867220e+03 
       1.337721560161e-01       2.860543596561e+03 
       1.382532426165e-01       2.703489667616e+03 
       1.428814360609e-01       2.543207347246e+03 
       1.476624515321e-01       2.389014988041e+03 
       1.526020387433e-01       2.249568967439e+03 
       1.577059929985e-01       2.130623417709e+03 
       1.629801690444e-01       2.033441486951e+03 
       1.684304985169e-01       1.954279273548e+03 
       1.740630117740e-01       1.885203153391e+03 
       1.798838649066e-01       1.816318675206e+03 
       1.858993727249e-01       1.739071106819e+03 
       1.921160485336e-01       1.649568310473e+03 
       1.985406515483e-01       1.550334836963e+03 
       2.051802428681e-01       1.449275152984e+03 
       2.120422510264e-01       1.356043802442e+03 
       2.191345482955e-01       1.277533514860e+03 
       2.264655391490e-01       1.214694170757e+03 
       2.340442626000e-01       1.162178579400e+03 
       2.418805105636e-01       1.111185153584e+03 
       2.499849649670e-01       1.054438587582e+03 
       2.583693571001e-01       9.905855815912e+02 
       2.670466537116e-01       9.247974995768e+02 
       2.760312756963e-01       8.647453234983e+02 
       2.853393569998e-01       8.148594287926e+02 
       2.949890537406e-01       7.732268816894e+02 
       3.050009167492e-01       7.335062161328e+02 
       3.153983450767e-01       6.905340985649e+02 
       3.262081440262e-01       6.448405473310e+02 
       3.374612196399e-01       6.014757365697e+02 
       3.491934534624e-01       5.642120271436e+02 
       3.614468185266e-01       5.315125792743e+02 
       3.742708226276e-01       4.988645150841e+02 
       3.877244025005e-01       4.646638622511e+02 
       4.018784498264e-01       4.318149813125e+02 
       4.168192394792e-01       4.026986491808e+02 
       4.326531737367e-01       3.754470773199e+02 
       4.495134922235e-01       3.476850896466e+02 
       4.675699985111e-01       3.207268888930e+02 
       4.870435605736e-01       2.959500569765e+02 
       5.082284362820e-01       2.716562332381e+02 
       5.315279555585e-01       2.475965986611e+02 
       5.575140964728e-01       2.246837349755e+02 
       5.870322012139e-01       2.018065664417e+02 
       6.213965322781e-01       1.792507734177e+02 
       6.627822448136e-01       1.564276406699e+02 
       7.150754607752e-01       1.330778012165e+02 
       7.858539354560e-01       1.085867752329e+02 
       8.909599331716e-01       8.253195653813e+01 
       1.060564710226e+00       5.600177666463e+01 
       1.319908517201e+00       3.405907362477e+01 
       1.660847294711e+00       1.997445931978e+01 
       2.090873541499e+00       1.157889543134e+01 
       2.632253815302e+00       6.648907542731e+00 
       3.313811218371e+00       3.785552919234e+00 
       4.171841152695e+00       2.138735624077e+00 
       5.252036841097e+00       1.199896089807e+00 
       6.611922642936e+00       6.689008950035e-01 
       8.323917436009e+00       3.707246387081e-01 
       1.047919118587e+01       2.043728079825e-01 
