# Matter power spectrum P(k) at redshift z=1.5
# for k=2.37114e-07 to 11.8976 h/Mpc,
# number of wavenumbers equal to 139
#    1:k (h/Mpc)              2:P (Mpc/h)^3        
       2.371143237623e-07       1.775851080363e-01 
       2.985092476847e-07       2.215167360443e-01 
       3.758008775658e-07       2.763163244729e-01 
       4.731052745422e-07       3.446724275014e-01 
       5.956042525750e-07       4.299387032262e-01 
       7.498213289393e-07       5.362984492509e-01 
       9.439691253070e-07       6.689698417773e-01 
       1.188386719798e-06       8.344619471549e-01 
       1.496090240592e-06       1.040894066109e+00 
       1.883466022219e-06       1.298394078474e+00 
       2.371143237623e-06       1.619595329861e+00 
       2.985092476847e-06       2.020256437830e+00 
       3.758008775658e-06       2.520034423884e+00 
       4.731052745422e-06       3.143449097164e+00 
       5.956042525750e-06       3.921085991379e+00 
       7.498213289393e-06       4.891096856729e+00 
       9.439691253070e-06       6.101071278857e+00 
       1.188386719798e-05       7.610371172005e+00 
       1.496090240592e-05       9.493042521010e+00 
       1.883466022219e-05       1.184144691827e+01 
       2.371143237623e-05       1.477079043597e+01 
       2.985092476847e-05       1.842477082974e+01 
       3.758008775658e-05       2.298261769967e+01 
       4.731052745422e-05       2.866786627460e+01 
       5.956042525750e-05       3.575928586620e+01 
       7.498213289393e-05       4.460448065906e+01 
       9.439691253070e-05       5.563679363177e+01 
       1.188386719798e-04       6.939627131147e+01 
       1.496090240592e-04       8.655557767928e+01 
       1.883466022219e-04       1.079518557646e+02 
       2.371143237623e-04       1.346255739767e+02 
       2.985092476847e-04       1.678672635974e+02 
       3.758008775658e-04       2.092725857200e+02 
       4.731052745422e-04       2.608051133775e+02 
       5.956042525750e-04       3.248643212382e+02 
       7.498213289393e-04       4.043535311516e+02 
       9.439691253070e-04       5.027395904586e+02 
       1.188386719798e-03       6.240934199922e+02 
       1.496090240592e-03       7.730934488241e+02 
       1.883466022219e-03       9.549453389518e+02 
       2.371143237623e-03       1.175125046521e+03 
       2.985092476847e-03       1.438868269197e+03 
       3.758008775658e-03       1.750365628862e+03 
       4.731052745422e-03       2.111507067027e+03 
       5.956042525750e-03       2.515328271667e+03 
       7.498213289393e-03       2.960123868983e+03 
       9.439691253070e-03       3.423880355874e+03 
       1.188386719798e-02       3.874330023238e+03 
       1.496090240592e-02       4.262713771149e+03 
       1.883466022186e-02       4.523957597371e+03 
       2.371143123028e-02       4.586514356374e+03 
       2.985037697082e-02       4.401548307530e+03 
       3.752818985528e-02       3.995379284404e+03 
       4.609781145468e-02       3.543001447590e+03 
       5.270244102025e-02       3.264085615643e+03 
       5.764340884506e-02       3.095884002737e+03 
       6.182142754018e-02       2.972754555551e+03 
       6.560194203584e-02       2.869865226357e+03 
       6.915569612164e-02       2.775773093653e+03 
       7.257631939245e-02       2.684391208308e+03 
       7.592139933105e-02       2.592361596633e+03 
       7.922949883593e-02       2.498016723036e+03 
       8.252821625254e-02       2.400888647988e+03 
       8.583840579667e-02       2.301419778102e+03 
       8.917656431906e-02       2.200740512383e+03 
       9.255626545421e-02       2.100459355675e+03 
       9.598906445813e-02       2.002446507854e+03 
       9.948509232737e-02       1.908610314363e+03 
       1.030534589546e-01       1.820677487236e+03 
       1.067025342458e-01       1.739991191111e+03 
       1.104401485638e-01       1.667343210429e+03 
       1.142737382381e-01       1.602854884279e+03 
       1.182104526749e-01       1.545920691171e+03 
       1.222572340026e-01       1.495228780018e+03 
       1.264208766824e-01       1.448872994156e+03 
       1.307080722756e-01       1.404568274638e+03 
       1.351254430968e-01       1.359967339203e+03 
       1.396795675198e-01       1.313051235146e+03 
       1.443769990638e-01       1.262528969008e+03 
       1.492242809569e-01       1.208148955544e+03 
       1.542279575961e-01       1.150815199742e+03 
       1.593945841331e-01       1.092434704597e+03 
       1.647307352971e-01       1.035495945629e+03 
       1.702430144896e-01       9.824668757736e+02 
       1.759380641387e-01       9.351660487154e+02 
       1.818225782709e-01       8.942748892343e+02 
       1.879033182385e-01       8.591275129890e+02 
       1.941871325285e-01       8.278609659509e+02 
       2.006809815717e-01       7.979412023037e+02 
       2.073919684657e-01       7.669748280204e+02 
       2.143273765315e-01       7.335667379276e+02 
       2.214947146441e-01       6.978631923462e+02 
       2.289017713154e-01       6.614686164060e+02 
       2.365566785822e-01       6.267015348332e+02 
       2.444679868667e-01       5.955146906260e+02 
       2.526447521539e-01       5.686017983583e+02 
       2.610966370843e-01       5.451204517720e+02 
       2.698340279139e-01       5.231843142512e+02 
       2.788681697819e-01       5.009199806929e+02 
       2.882113233758e-01       4.775320765062e+02 
       2.978769469504e-01       4.536896807978e+02 
       3.078799088066e-01       4.309226659305e+02 
       3.182367368496e-01       4.104500333302e+02 
       3.289659138590e-01       3.923168378110e+02 
       3.400882297866e-01       3.754776765420e+02 
       3.516272060084e-01       3.587403567033e+02 
       3.636096113688e-01       3.417681695713e+02 
       3.760660966163e-01       3.252195425045e+02 
       3.890319832623e-01       3.099095341710e+02 
       4.025482562599e-01       2.959119879416e+02 
       4.166628291262e-01       2.825764474625e+02 
       4.314321782981e-01       2.693737742065e+02 
       4.469234855465e-01       2.564729012842e+02 
       4.632174913190e-01       2.443082189677e+02 
       4.804123617099e-01       2.328485339997e+02 
       4.986290312881e-01       2.217044585293e+02 
       5.180187461781e-01       2.107904872006e+02 
       5.387739761931e-01       2.003040354791e+02 
       5.611446449656e-01       1.901744852422e+02 
       5.854630516626e-01       1.802019381551e+02 
       6.121835786038e-01       1.704131133734e+02 
       6.419487464346e-01       1.607373131509e+02 
       6.757048188474e-01       1.510287715891e+02 
       7.149166003953e-01       1.411897039184e+02 
       7.619954617971e-01       1.310038997987e+02 
       8.212218374680e-01       1.201840130112e+02 
       9.008852429855e-01       1.082637762019e+02 
       1.018266541500e+00       9.456378718249e+01 
       1.206993215921e+00       7.860495027784e+01 
       1.498825683024e+00       6.205283859606e+01 
       1.885652353458e+00       4.779532530140e+01 
       2.373879494498e+00       3.605535508420e+01 
       2.988537182136e+00       2.645084370767e+01 
       3.762345402672e+00       1.876611487650e+01 
       4.736512235370e+00       1.284351685915e+01 
       5.962915616382e+00       8.491036795461e+00 
       7.506865997847e+00       5.446297486190e+00 
       9.450584367624e+00       3.407583800974e+00 
       1.189758081671e+01       2.090473437595e+00 
