# Matter power spectrum P(k) at redshift z=1
# for k=2.0945e-07 to 10.5085 h/Mpc,
# number of wavenumbers equal to 139
#    1:k (h/Mpc)              2:P (Mpc/h)^3        
       2.094504260619e-07       3.664847016309e-01 
       2.636824638805e-07       4.584435323057e-01 
       3.319565544237e-07       5.734767954011e-01 
       4.179085419756e-07       7.173743581394e-01 
       5.261156832989e-07       8.973788887521e-01 
       6.623404032484e-07       1.122550394917e+00 
       8.338371649075e-07       1.404222232797e+00 
       1.049738796200e-06       1.756571537772e+00 
       1.321542846283e-06       2.197332787509e+00 
       1.663723871960e-06       2.748690412258e+00 
       2.094504260619e-06       3.438395375987e+00 
       2.636824638805e-06       4.301161925838e+00 
       3.319565544237e-06       5.380414803494e+00 
       4.179085419756e-06       6.730474843285e+00 
       5.261156832989e-06       8.419292935559e+00 
       6.623404032484e-06       1.053186990129e+01 
       8.338371649075e-06       1.317453429389e+01 
       1.049738796200e-05       1.648029320479e+01 
       1.321542846283e-05       2.061552494838e+01 
       1.663723871960e-05       2.578834956535e+01 
       2.094504260619e-05       3.225909668609e+01 
       2.636824638805e-05       4.035339407278e+01 
       3.319565544237e-05       5.047852862702e+01 
       4.179085419756e-05       6.314388948025e+01 
       5.261156832989e-05       7.898649468829e+01 
       6.623404032484e-05       9.880283213990e+01 
       8.338371649075e-05       1.235885103811e+02 
       1.049738796200e-04       1.545875048115e+02 
       1.321542846283e-04       1.933530662070e+02 
       1.663723871960e-04       2.418225573345e+02 
       2.094504260619e-04       3.024084480914e+02 
       2.636824638805e-04       3.781071535896e+02 
       3.319565544237e-04       4.726258952484e+02 
       4.179085419756e-04       5.905247232171e+02 
       5.261156832989e-04       7.373658620857e+02 
       6.623404032484e-04       9.198561799650e+02 
       8.338371649075e-04       1.145962573154e+03 
       1.049738796200e-03       1.424971967561e+03 
       1.321542846283e-03       1.767434329604e+03 
       1.663723871960e-03       2.184837902574e+03 
       2.094504260619e-03       2.688816886894e+03 
       2.636824638805e-03       3.289770492325e+03 
       3.319565544237e-03       3.994716685265e+03 
       4.179085419756e-03       4.804134367617e+03 
       5.261156832989e-03       5.707481781353e+03 
       6.623404032484e-03       6.677401317628e+03 
       8.338371649075e-03       7.662798048177e+03 
       1.049738796200e-02       8.581193587159e+03 
       1.321542846283e-02       9.312926263702e+03 
       1.663723871949e-02       9.704186008530e+03 
       2.094504209790e-02       9.595014224035e+03 
       2.636795578290e-02       8.895849395928e+03 
       3.316379656403e-02       7.716702251380e+03 
       4.093519277377e-02       6.516562450145e+03 
       4.712065162536e-02       5.830795405799e+03 
       5.168659406931e-02       5.463650828915e+03 
       5.551134953467e-02       5.218506119435e+03 
       5.895483037929e-02       5.025336934766e+03 
       6.218212199349e-02       4.853055802104e+03 
       6.528252446474e-02       4.685354267882e+03 
       6.831042492889e-02       4.513237443935e+03 
       7.130197183974e-02       4.332206095867e+03 
       7.428288127569e-02       4.140979116967e+03 
       7.727248876782e-02       3.940754960979e+03 
       8.028602513533e-02       3.734635569468e+03 
       8.333597656840e-02       3.527063750625e+03 
       8.643293895936e-02       3.323229963118e+03 
       8.958617682899e-02       3.128458681549e+03 
       9.280400146566e-02       2.947612706911e+03 
       9.609403394731e-02       2.784561670960e+03 
       9.946339230561e-02       2.641754490031e+03 
       1.029188271784e-01       2.519921768246e+03 
       1.064668215436e-01       2.417923138309e+03 
       1.101136648169e-01       2.332756485070e+03 
       1.138655082837e-01       2.259761430867e+03 
       1.177284067177e-01       2.193064258687e+03 
       1.217083496681e-01       2.126304155794e+03 
       1.258112849831e-01       2.053622080416e+03 
       1.300431365424e-01       1.970782187061e+03 
       1.344098177632e-01       1.876166739001e+03 
       1.389172421835e-01       1.771311206259e+03 
       1.435713322459e-01       1.660706117134e+03 
       1.483780272968e-01       1.550800479213e+03 
       1.533432917403e-01       1.448426864316e+03 
       1.584731242428e-01       1.359081263314e+03 
       1.637735688569e-01       1.285524107687e+03 
       1.692507289128e-01       1.227041362090e+03 
       1.749107845160e-01       1.179550875357e+03 
       1.807600144808e-01       1.136641677800e+03 
       1.868048235258e-01       1.091490556616e+03 
       1.930517755625e-01       1.039237626088e+03 
       1.995076339229e-01       9.789092211308e+02 
       2.061794094061e-01       9.138258418451e+02 
       2.130744170875e-01       8.500472860655e+02 
       2.202003429326e-01       7.935226945563e+02 
       2.275653214115e-01       7.473678990964e+02 
       2.351780255320e-01       7.105537694760e+02 
       2.430477710202e-01       6.785848064912e+02 
       2.511846368012e-01       6.459619951960e+02 
       2.595996045081e-01       6.093212959727e+02 
       2.683047205066e-01       5.693440265193e+02 
       2.773132849307e-01       5.299448890765e+02 
       2.866400735604e-01       4.952245264679e+02 
       2.963016001355e-01       4.664988336400e+02 
       3.063164290594e-01       4.416000980008e+02 
       3.167055516092e-01       4.169154983661e+02 
       3.274928430760e-01       3.905344134034e+02 
       3.387056241692e-01       3.636886332682e+02 
       3.503753582667e-01       3.390449773150e+02 
       3.625385277436e-01       3.177131120329e+02 
       3.752377493652e-01       2.982550999573e+02 
       3.885232132112e-01       2.786933396206e+02 
       4.024545660715e-01       2.589468645161e+02 
       4.171034157073e-01       2.404737867993e+02 
       4.325567185952e-01       2.238086517216e+02 
       4.489214512182e-01       2.078838393199e+02 
       4.663311901706e-01       1.920517430929e+02 
       4.849556068596e-01       1.769867772197e+02 
       5.050145481384e-01       1.629060478970e+02 
       5.267995845487e-01       1.491538559239e+02 
       5.507082084754e-01       1.357929652942e+02 
       5.773004629315e-01       1.229677523353e+02 
       6.073975128935e-01       1.103178988015e+02 
       6.422636279636e-01       9.788574571538e+01 
       6.839661443036e-01       8.542813124674e+01 
       7.361451125118e-01       7.277626267676e+01 
       8.057879324550e-01       5.963764625586e+01 
       9.073934677028e-01       4.576709492160e+01 
       1.069817816721e+00       3.152966032319e+01 
       1.324232067482e+00       1.928329173435e+01 
       1.665498482196e+00       1.125269161995e+01 
       2.096714185633e+00       6.489215433222e+00 
       2.639606701266e+00       3.709822634719e+00 
       3.323067953341e+00       2.104320304952e+00 
       4.183494691579e+00       1.185180942115e+00 
       5.266707777335e+00       6.632089155862e-01 
       6.630392257381e+00       3.689390725671e-01 
       8.347169302981e+00       2.041332488370e-01 
       1.050846355207e+01       1.123873044966e-01 
