# Matter power spectrum P(k) at redshift z=2
# for k=2.09356e-07 to 10.504 h/Mpc,
# number of wavenumbers equal to 139
#    1:k (h/Mpc)              2:P (Mpc/h)^3        
       2.093559751614e-07       2.768731871690e-01 
       2.635635572416e-07       3.433925745016e-01 
       3.318068598344e-07       4.258933896514e-01 
       4.177200876531e-07       5.282152054852e-01 
       5.258784333634e-07       6.551200604021e-01 
       6.620417232757e-07       8.125140826085e-01 
       8.334611490997e-07       1.007722360030e+00 
       1.049265420345e-06       1.249829847977e+00 
       1.320946901389e-06       1.550104179955e+00 
       1.662973621789e-06       1.922520059246e+00 
       2.093559751614e-06       2.384409634745e+00 
       2.635635572416e-06       2.957269126063e+00 
       3.318068598344e-06       3.667759237144e+00 
       4.177200876531e-06       4.548945906431e+00 
       5.258784333634e-06       5.641839119789e+00 
       6.620417232757e-06       6.997301377323e+00 
       8.334611490997e-06       8.678414560962e+00 
       1.049265420345e-05       1.076341524016e+01 
       1.320946901389e-05       1.334933477602e+01 
       1.662973621789e-05       1.655651315185e+01 
       2.093559751614e-05       2.053419567325e+01 
       2.635635572416e-05       2.546747112660e+01 
       3.318068598344e-05       3.158587069315e+01 
       4.177200876531e-05       3.917402062720e+01 
       5.258784333634e-05       4.858483047220e+01 
       6.620417232757e-05       6.025580307446e+01 
       8.334611490997e-05       7.472917153288e+01 
       1.049265420345e-04       9.267669510790e+01 
       1.320946901389e-04       1.149300629938e+02 
       1.662973621789e-04       1.425179242034e+02 
       2.093559751614e-04       1.767105052695e+02 
       2.635635572416e-04       2.190724512589e+02 
       3.318068598344e-04       2.715236836336e+02 
       4.177200876531e-04       3.364063519159e+02 
       5.258784333634e-04       4.165529940835e+02 
       6.620417232757e-04       5.153468313216e+02 
       8.334611490997e-04       6.367608608412e+02 
       1.049265420345e-03       7.853600538137e+02 
       1.320946901389e-03       9.662464656931e+02 
       1.662973621789e-03       1.184895476541e+03 
       2.093559751614e-03       1.446756796120e+03 
       2.635635572416e-03       1.756507375393e+03 
       3.318068598344e-03       2.116978848689e+03 
       4.177200876531e-03       2.527591602341e+03 
       5.258784333634e-03       2.982152582683e+03 
       6.620417232757e-03       3.466034443906e+03 
       8.334611490997e-03       3.952836089834e+03 
       1.049265420345e-02       4.400740371286e+03 
       1.320946901389e-02       4.749883429019e+03 
       1.662973621774e-02       4.924261989688e+03 
       2.093559688690e-02       4.846174527057e+03 
       2.635601536641e-02       4.474555943960e+03 
       3.314502063342e-02       3.868617259573e+03 
       4.085410043192e-02       3.262387697476e+03 
       4.692642789762e-02       2.918014288241e+03 
       5.142684246218e-02       2.730872431217e+03 
       5.520786535772e-02       2.604634762156e+03 
       5.861734794969e-02       2.504858378665e+03 
       6.181575492707e-02       2.416149637242e+03 
       6.489025585988e-02       2.330391934737e+03 
       6.789410263901e-02       2.243074433880e+03 
       7.086277129505e-02       2.151896142177e+03 
       7.382154630294e-02       2.056132248775e+03 
       7.678946791472e-02       1.956270090847e+03 
       7.978155399387e-02       1.853729410942e+03 
       8.281013006167e-02       1.750592275537e+03 
       8.588566590199e-02       1.649318834567e+03 
       8.901732350441e-02       1.552453174208e+03 
       9.221332811678e-02       1.462335759274e+03 
       9.548122653541e-02       1.380845197355e+03 
       9.882807101682e-02       1.309188382426e+03 
       1.022605526389e-01       1.247752586107e+03 
       1.057850993871e-01       1.196027311612e+03 
       1.094079490469e-01       1.152604353761e+03 
       1.131352037426e-01       1.115271469336e+03 
       1.169728708887e-01       1.081221075880e+03 
       1.209268939748e-01       1.047393269229e+03 
       1.250031757129e-01       1.010945257776e+03 
       1.292075954887e-01       9.697878138283e+02 
       1.335460226606e-01       9.230682365791e+02 
       1.380243269940e-01       8.714412574630e+02 
       1.426483873419e-01       8.169946288135e+02 
       1.474240995755e-01       7.627905581688e+02 
       1.523573846968e-01       7.121206271071e+02 
       1.574541980203e-01       6.676769356805e+02 
       1.627205402850e-01       6.308650776215e+02 
       1.681624715409e-01       6.014273421849e+02 
       1.737861286378e-01       5.774705682557e+02 
       1.795977471438e-01       5.559436113259e+02 
       1.856036885111e-01       5.335422425508e+02 
       1.918104733151e-01       5.078506704161e+02 
       1.982248214065e-01       4.782918133734e+02 
       2.048536998532e-01       4.463711685294e+02 
       2.117043796076e-01       4.149738404270e+02 
       2.187845019413e-01       3.870070470967e+02 
       2.261021558368e-01       3.640638771837e+02 
       2.336659677537e-01       3.457422990002e+02 
       2.414852054947e-01       3.299218136380e+02 
       2.495698983251e-01       3.139212498497e+02 
       2.579309760725e-01       2.960258553647e+02 
       2.665804306932e-01       2.764697483030e+02 
       2.755315048073e-01       2.571126908824e+02 
       2.847989130306e-01       2.399874477094e+02 
       2.943991037078e-01       2.258175187145e+02 
       3.043505710059e-01       2.136053140323e+02 
       3.146742305018e-01       2.015744006389e+02 
       3.253938757080e-01       1.887200288729e+02 
       3.365367389111e-01       1.755878574692e+02 
       3.481341879632e-01       1.634977253822e+02 
       3.602226023641e-01       1.530542474970e+02 
       3.728444887822e-01       1.435835608041e+02 
       3.860499207583e-01       1.340806555704e+02 
       3.998984239897e-01       1.244585989422e+02 
       4.144614843627e-01       1.154427468645e+02 
       4.298259426775e-01       1.073380214935e+02 
       4.460986784511e-01       9.961962501504e+01 
       4.634132122095e-01       9.193390396736e+01 
       4.819392396735e-01       8.461596094859e+01 
       5.018967836082e-01       7.779875280057e+01 
       5.235778734179e-01       7.114548103245e+01 
       5.473809930692e-01       6.467894767391e+01 
       5.738682037242e-01       5.848636960879e+01 
       6.038647395749e-01       5.238027627383e+01 
       6.386432412778e-01       4.638820595628e+01 
       6.802889956131e-01       4.038920404312e+01 
       7.324827823791e-01       3.430509965168e+01 
       8.023094047368e-01       2.799686798695e+01 
       9.044924420418e-01       2.135583039718e+01 
       1.068149454775e+00       1.458376049878e+01 
       1.323529876458e+00       8.838696204345e+00 
       1.664786768447e+00       5.118840675726e+00 
       2.095821773985e+00       2.929920751368e+00 
       2.638483234853e+00       1.662346488802e+00 
       3.321653592930e+00       9.357174434079e-01 
       4.181714117317e+00       5.229339498633e-01 
       5.264466167149e+00       2.903429164559e-01 
       6.627570237354e+00       1.602460820279e-01 
       8.343616590256e+00       8.796203403251e-02 
       1.050399095174e+01       4.804276374901e-02 
