# Matter power spectrum P(k) at redshift z=2
# for k=2.00575e-07 to 10.0629 h/Mpc,
# number of wavenumbers equal to 139
#    1:k (h/Mpc)              2:P (Mpc/h)^3        
       2.005753688581e-07       2.422313404009e-01 
       2.525094288355e-07       3.021553804057e-01 
       3.178905366786e-07       3.769036398182e-01 
       4.002004747936e-07       4.701433860836e-01 
       5.038225475297e-07       5.864491077568e-01 
       6.342750081200e-07       7.315269463699e-01 
       7.985049257883e-07       9.124946480298e-01 
       1.005258142518e-06       1.138230770747e+00 
       1.265545021029e-06       1.419810279025e+00 
       1.593226786742e-06       1.771047895953e+00 
       2.005753688581e-06       2.209175870775e+00 
       2.525094288355e-06       2.755689407648e+00 
       3.178905366786e-06       3.437401234420e+00 
       4.002004747936e-06       4.287757032329e+00 
       5.038225475297e-06       5.348476250572e+00 
       6.342750081200e-06       6.671598759272e+00 
       7.985049257883e-06       8.322037676777e+00 
       1.005258142518e-05       1.038076344888e+01 
       1.265545021029e-05       1.294877509772e+01 
       1.593226786742e-05       1.615205281487e+01 
       2.005753688581e-05       2.014773368844e+01 
       2.525094288355e-05       2.513181105974e+01 
       3.178905366786e-05       3.134873046263e+01 
       4.002004747936e-05       3.910334335269e+01 
       5.038225475297e-05       4.877578625464e+01 
       6.342750081200e-05       6.083997821252e+01 
       7.985049257883e-05       7.588657072936e+01 
       1.005258142518e-04       9.465133255309e+01 
       1.265545021029e-04       1.180500803133e+02 
       1.593226786742e-04       1.472213212300e+02 
       2.005753688581e-04       1.835776441973e+02 
       2.525094288355e-04       2.288663753675e+02 
       3.178905366786e-04       2.852387555563e+02 
       4.002004747936e-04       3.553243979732e+02 
       5.038225475297e-04       4.423035580852e+02 
       6.342750081200e-04       5.499639466268e+02 
       7.985049257883e-04       6.827234003115e+02 
       1.005258142518e-03       8.455980027988e+02 
       1.265545021029e-03       1.044091570618e+03 
       1.593226786742e-03       1.283940519518e+03 
       2.005753688581e-03       1.570550755072e+03 
       2.525094288355e-03       1.908004809022e+03 
       3.178905366786e-03       2.297712248157e+03 
       4.002004747936e-03       2.736587955083e+03 
       5.038225475297e-03       3.214617609689e+03 
       6.342750081200e-03       3.709560911052e+03 
       7.985049257883e-03       4.192835173389e+03 
       1.005258142518e-02       4.614591465071e+03 
       1.265545021029e-02       4.909886416572e+03 
       1.593226786740e-02       5.000881025017e+03 
       2.005753671606e-02       4.813890290989e+03 
       2.525081562985e-02       4.320463886252e+03 
       3.177165912347e-02       3.600659583498e+03 
       3.944767289631e-02       2.900987087614e+03 
       4.590282059179e-02       2.509481778769e+03 
       5.058725422527e-02       2.319405343080e+03 
       5.445286661372e-02       2.201629476577e+03 
       5.790554433821e-02       2.112876773520e+03 
       6.112641750585e-02       2.035155470943e+03 
       6.421143430521e-02       1.959469505383e+03 
       6.721815952200e-02       1.881076086175e+03 
       7.018442193247e-02       1.797761999435e+03 
       7.313689116371e-02       1.709073571872e+03 
       7.609547042391e-02       1.615870857142e+03 
       7.907573842927e-02       1.519979222348e+03 
       8.209039680908e-02       1.423855685362e+03 
       8.515017325954e-02       1.330250359856e+03 
       8.826440919232e-02       1.241873444540e+03 
       9.144145551473e-02       1.161092364571e+03 
       9.468894689793e-02       1.089683185192e+03 
       9.801399635081e-02       1.028652206947e+03 
       1.014233359014e-01       9.781314219642e+02 
       1.049234198375e-01       9.373441842659e+02 
       1.085205013100e-01       9.046405574145e+02 
       1.122206895931e-01       8.776136229489e+02 
       1.160299930623e-01       8.533234928048e+02 
       1.199543514985e-01       8.286543766389e+02 
       1.239996603769e-01       8.007995618847e+02 
       1.281717891622e-01       7.678072295506e+02 
       1.324765952113e-01       7.290489012845e+02 
       1.369199346048e-01       6.854389885874e+02 
       1.415076710421e-01       6.392747822011e+02 
       1.462456838180e-01       5.936901529489e+02 
       1.511398758194e-01       5.518654074549e+02 
       1.561961824352e-01       5.162287575293e+02 
       1.614205822427e-01       4.878667738696e+02 
       1.668191103124e-01       4.662668560643e+02 
       1.723978749640e-01       4.494329675222e+02 
       1.781630787962e-01       4.343929053902e+02 
       1.841210448072e-01       4.180771112756e+02 
       1.902782484299e-01       3.983859515884e+02 
       1.966413563142e-01       3.750201310852e+02 
       2.032172727236e-01       3.495861344583e+02 
       2.100131944681e-01       3.248125005095e+02 
       2.170366753881e-01       3.032498668186e+02 
       2.242957015487e-01       2.861264776883e+02 
       2.317987785110e-01       2.728789543266e+02 
       2.395550323405e-01       2.615265048488e+02 
       2.475743264175e-01       2.497522359834e+02 
       2.558673966539e-01       2.362136943150e+02 
       2.644460084491e-01       2.212814127701e+02 
       2.733231396738e-01       2.066135581856e+02 
       2.825131952369e-01       1.938547338546e+02 
       2.920322604717e-01       1.834662144966e+02 
       3.018984028120e-01       1.745295566596e+02 
       3.121320342314e-01       1.656145291780e+02 
       3.227563509902e-01       1.560123897392e+02 
       3.337978728217e-01       1.462373019147e+02 
       3.452871114607e-01       1.373083295309e+02 
       3.572594093789e-01       1.296137455245e+02 
       3.697560053076e-01       1.225950293045e+02 
       3.828254060426e-01       1.155293225503e+02 
       3.965251780594e-01       1.084021307928e+02 
       4.109243240564e-01       1.017358410701e+02 
       4.261064894838e-01       9.570794459027e+01 
       4.421743710615e-01       8.994275284767e+01 
       4.592559064147e-01       8.421871303712e+01 
       4.775131722857e-01       7.875833776045e+01 
       4.971555247913e-01       7.363092277314e+01 
       5.184596106931e-01       6.862033906586e+01 
       5.418009467848e-01       6.373513167155e+01 
       5.677058663133e-01       5.901760787001e+01 
       5.969412356516e-01       5.434677564838e+01 
       6.306785696789e-01       4.971850844154e+01 
       6.708151928621e-01       4.504327405515e+01 
       7.206529295462e-01       4.023724622716e+01 
       7.864478823127e-01       3.515865309641e+01 
       8.810715696585e-01       2.963163568811e+01 
       1.030773426564e+00       2.358778599236e+01 
       1.268933437524e+00       1.766627712184e+01 
       1.594897868269e+00       1.302770609988e+01 
       2.007808690502e+00       9.662953335101e+00 
       2.527681203191e+00       7.171341733841e+00 
       3.182162099519e+00       5.285925606783e+00 
       4.006104731533e+00       3.843231865305e+00 
       5.043387048836e+00       2.740483922310e+00 
       6.349248117293e+00       1.908274095262e+00 
       7.993229800647e+00       1.294023286322e+00 
       1.006288011834e+01       8.534418988331e-01 
