# Matter power spectrum P(k) at redshift z=1.5
# for k=1.91956e-07 to 12.1251 h/Mpc,
# number of wavenumbers equal to 140
#    1:k (h/Mpc)              2:P (Mpc/h)^3        
       1.919562151541e-07       3.936422641878e-01 
       2.416585572093e-07       4.910228705704e-01 
       3.042300986483e-07       6.124938334037e-01 
       3.830030022209e-07       7.640147094780e-01 
       4.821722122894e-07       9.530193516212e-01 
       6.070188509121e-07       1.188780624700e+00 
       7.641914568514e-07       1.482865346842e+00 
       9.620600445062e-07       1.849701774737e+00 
       1.211161837701e-06       2.307287474878e+00 
       1.524762415277e-06       2.878072308824e+00 
       1.919562151541e-06       3.590059852290e+00 
       2.416585572093e-06       4.478181280064e+00 
       3.042300986483e-06       5.586009117915e+00 
       3.830030022209e-06       6.967894923608e+00 
       4.821722122894e-06       8.691635753254e+00 
       6.070188509121e-06       1.084180017865e+01 
       7.641914568514e-06       1.352387693206e+01 
       9.620600445062e-06       1.686944951919e+01 
       1.211161837701e-05       2.104265026347e+01 
       1.524762415277e-05       2.624820964189e+01 
       1.919562151541e-05       3.274149425090e+01 
       2.416585572093e-05       4.084102276955e+01 
       3.042300986483e-05       5.094406784950e+01 
       3.830030022209e-05       6.354609726744e+01 
       4.821722122894e-05       7.926498424390e+01 
       6.070188509121e-05       9.887112757126e+01 
       7.641914568514e-05       1.233248666016e+02 
       9.620600445062e-05       1.538228444439e+02 
       1.211161837701e-04       1.918552379753e+02 
       1.524762415277e-04       2.392759703994e+02 
       1.919562151541e-04       2.983880202814e+02 
       2.416585572093e-04       3.720454945659e+02 
       3.042300986483e-04       4.637728306136e+02 
       3.830030022209e-04       5.778987616849e+02 
       4.821722122894e-04       7.196980080861e+02 
       6.070188509121e-04       8.955272874198e+02 
       7.641914568514e-04       1.112935976419e+03 
       9.620600445062e-04       1.380726219913e+03 
       1.211161837701e-03       1.708917125478e+03 
       1.524762415277e-03       2.108485973437e+03 
       1.919562151541e-03       2.590678615394e+03 
       2.416585572093e-03       3.165758919818e+03 
       3.042300986483e-03       3.841018124869e+03 
       3.830030022209e-03       4.617823199625e+03 
       4.821722122894e-03       5.480197824738e+03 
       6.070188509121e-03       6.413718903668e+03 
       7.641914568514e-03       7.364522669097e+03 
       9.620600445062e-03       8.251015067898e+03 
       1.211161837701e-02       8.951802229731e+03 
       1.524762415257e-02       9.307615577622e+03 
       1.919562077240e-02       9.151012110112e+03 
       2.416547939031e-02       8.390642518010e+03 
       3.038563297672e-02       7.154225439251e+03 
       3.738626575967e-02       5.948113417343e+03 
       4.283559149546e-02       5.291290694004e+03 
       4.689417028004e-02       4.947031814865e+03 
       5.031578620474e-02       4.724659107434e+03 
       5.340688927745e-02       4.555731504138e+03 
       5.630980664295e-02       4.409067368420e+03 
       5.910224331578e-02       4.267762988863e+03 
       6.183184101791e-02       4.122032851388e+03 
       6.453042560895e-02       3.966525910569e+03 
       6.722072990154e-02       3.799144461792e+03 
       6.991990392456e-02       3.620391404886e+03 
       7.264149570166e-02       3.432867688866e+03 
       7.539663936409e-02       3.240761993226e+03 
       7.819480368999e-02       3.049282459086e+03 
       8.104428302130e-02       2.864037734586e+03 
       8.395253006582e-02       2.690408834279e+03 
       8.692638777163e-02       2.532967381771e+03 
       8.997225455210e-02       2.394991126376e+03 
       9.309620416693e-02       2.278108309171e+03 
       9.630407393282e-02       2.182084067268e+03 
       9.960153029750e-02       2.104753312023e+03 
       1.029941179113e-01       2.042117808175e+03 
       1.064872964769e-01       1.988651958120e+03 
       1.100864684503e-01       1.937881324170e+03 
       1.137969998709e-01       1.883271349978e+03 
       1.176242360681e-01       1.819368358016e+03 
       1.215735136393e-01       1.742985214701e+03 
       1.256501698622e-01       1.654086846584e+03 
       1.298595505467e-01       1.556006889791e+03 
       1.342070172383e-01       1.454782161189e+03 
       1.386979546149e-01       1.357699332085e+03 
       1.433377788862e-01       1.271455446338e+03 
       1.481319479764e-01       1.200465743962e+03 
       1.530859742555e-01       1.145748117031e+03 
       1.582054405765e-01       1.104606697044e+03 
       1.634960203642e-01       1.071218014356e+03 
       1.689635025054e-01       1.038188514738e+03 
       1.746138217862e-01       9.989409715222e+02 
       1.804530956454e-01       9.502376255776e+02 
       1.864876680392e-01       8.936152749411e+02 
       1.927241612735e-01       8.347067536327e+02 
       1.991695367523e-01       7.805652813107e+02 
       2.058311657337e-01       7.363566990992e+02 
       2.127169113875e-01       7.030701844040e+02 
       2.198352237378e-01       6.772163648455e+02 
       2.271952494649e-01       6.526738603733e+02 
       2.348069590657e-01       6.240820234957e+02 
       2.426812945762e-01       5.900534143588e+02 
       2.508303419823e-01       5.538656316711e+02 
       2.592675336750e-01       5.208196785335e+02 
       2.680078879280e-01       4.942544764152e+02 
       2.770682945453e-01       4.732684118099e+02 
       2.864678587437e-01       4.537532154607e+02 
       2.962283192983e-01       4.320091479999e+02 
       3.063745624361e-01       4.079769643322e+02 
       3.169352605740e-01       3.848393475990e+02 
       3.279436757680e-01       3.653151374982e+02 
       3.394386832386e-01       3.487700495728e+02 
       3.514660930189e-01       3.323392896303e+02 
       3.640803816001e-01       3.146726383686e+02 
       3.773469969643e-01       2.974027024040e+02 
       3.913454806136e-01       2.822378798389e+02 
       4.061737783105e-01       2.682784537428e+02 
       4.219543215450e-01       2.539133638531e+02 
       4.388428178728e-01       2.397124983259e+02 
       4.570413126826e-01       2.266783756036e+02 
       4.768182236777e-01       2.139222507830e+02 
       4.985402207013e-01       2.010763778092e+02 
       5.227251792373e-01       1.887486563173e+02 
       5.501346911681e-01       1.763261221532e+02 
       5.819455940056e-01       1.638526492237e+02 
       6.200909495000e-01       1.510114857203e+02 
       6.679930311390e-01       1.375215665690e+02 
       7.322604508794e-01       1.228216094143e+02 
       8.266507032183e-01       1.061917672098e+02 
       9.781476550538e-01       8.721540490012e+01 
       1.213438795273e+00       6.802433413707e+01 
       1.526478135509e+00       5.204072902930e+01 
       1.921706549286e+00       3.931693462310e+01 
       2.419285170038e+00       2.914683652257e+01 
       3.045699578925e+00       2.108107940800e+01 
       3.834308596600e+00       1.481328908213e+01 
       4.827108528920e+00       1.008787091154e+01 
       6.076969592546e+00       6.657824851699e+00 
       7.650451446756e+00       4.269485497898e+00 
       9.631347738019e+00       2.671258337956e+00 
       1.212514841722e+01       1.637874531077e+00 
