# Matter power spectrum P(k) at redshift z=1.5
# for k=1.9688e-07 to 12.4349 h/Mpc,
# number of wavenumbers equal to 140
#    1:k (h/Mpc)              2:P (Mpc/h)^3        
       1.968797089091e-07       3.634138317024e-01 
       2.478568686123e-07       4.533164221731e-01 
       3.120333103837e-07       5.654594312470e-01 
       3.928266637683e-07       7.053447715560e-01 
       4.945394694482e-07       8.798354380140e-01 
       6.225883052236e-07       1.097492216917e+00 
       7.837922385318e-07       1.368993691058e+00 
       9.867359666547e-07       1.707660146815e+00 
       1.242226983153e-06       2.130107086355e+00 
       1.563871116308e-06       2.657060406568e+00 
       1.968797089091e-06       3.314373235656e+00 
       2.478568686123e-06       4.134294312747e+00 
       3.120333103837e-06       5.157050131672e+00 
       3.928266637683e-06       6.432818452562e+00 
       4.945394694482e-06       8.024189980161e+00 
       6.225883052236e-06       1.000923891989e+01 
       7.837922385318e-06       1.248535294502e+01 
       9.867359666548e-06       1.557401023820e+01 
       1.242226983153e-05       1.942673753769e+01 
       1.563871116308e-05       2.423254057492e+01 
       1.968797089091e-05       3.022716968229e+01 
       2.478568686123e-05       3.770467162795e+01 
       3.120333103837e-05       4.703178745558e+01 
       3.928266637683e-05       5.866588895182e+01 
       4.945394694482e-05       7.317730656511e+01 
       6.225883052236e-05       9.127709075873e+01 
       7.837922385318e-05       1.138514633210e+02 
       9.867359666548e-05       1.420044422399e+02 
       1.242226983153e-04       1.771103270659e+02 
       1.563871116308e-04       2.208778349681e+02 
       1.968797089091e-04       2.754275262912e+02 
       2.478568686123e-04       3.433834697635e+02 
       3.120333103837e-04       4.279784074564e+02 
       3.928266637683e-04       5.331683574811e+02 
       4.945394694482e-04       6.637471349303e+02 
       6.225883052236e-04       8.254441682782e+02 
       7.837922385318e-04       1.024982787284e+03 
       9.867359666548e-04       1.270072402213e+03 
       1.242226983153e-03       1.569290002228e+03 
       1.563871116308e-03       1.931726587357e+03 
       1.968797089091e-03       2.366175483185e+03 
       2.478568686123e-03       2.879754537050e+03 
       3.120333103837e-03       3.475947587790e+03 
       3.928266637683e-03       4.151817284048e+03 
       4.945394694482e-03       4.894198374306e+03 
       6.225883052236e-03       5.675043897966e+03 
       7.837922385318e-03       6.446140480389e+03 
       9.867359666548e-03       7.133666047420e+03 
       1.242226983153e-02       7.634844526072e+03 
       1.563871116302e-02       7.822770892422e+03 
       1.968797060058e-02       7.573084221983e+03 
       2.478549810844e-02       6.831470884027e+03 
       3.118035437937e-02       5.720645712248e+03 
       3.860243229550e-02       4.645012402054e+03 
       4.466168669246e-02       4.054088860315e+03 
       4.909581050560e-02       3.761199764469e+03 
       5.278423167029e-02       3.577843036203e+03 
       5.609262480240e-02       3.439620036314e+03 
       5.918653135535e-02       3.318837606723e+03 
       6.215461644001e-02       3.201215003534e+03 
       6.505049807023e-02       3.078950185695e+03 
       6.790962230284e-02       2.948177190648e+03 
       7.075709765532e-02       2.807837465369e+03 
       7.361173587966e-02       2.659033143920e+03 
       7.648831048320e-02       2.504517346162e+03 
       7.939890121162e-02       2.348190933028e+03 
       8.235373591682e-02       2.194571123881e+03 
       8.536173990143e-02       2.048249146873e+03 
       8.843090677896e-02       1.913376759320e+03 
       9.156855597631e-02       1.793226697944e+03 
       9.478151570558e-02       1.689859277454e+03 
       9.807625542585e-02       1.603908147510e+03 
       1.014589831461e-01       1.534482411699e+03 
       1.049357176726e-01       1.479183290060e+03 
       1.085123426362e-01       1.434251707335e+03 
       1.121946470509e-01       1.394890756097e+03 
       1.159883558012e-01       1.355814424610e+03 
       1.198991525654e-01       1.312034927354e+03 
       1.239326970885e-01       1.259801562649e+03 
       1.280946383231e-01       1.197477908407e+03 
       1.323906246972e-01       1.126058376280e+03 
       1.368263125930e-01       1.049062811011e+03 
       1.414073740100e-01       9.717336538606e+02 
       1.461395043154e-01       8.997258228998e+02 
       1.510284309394e-01       8.376780700857e+02 
       1.560799238454e-01       7.880689037576e+02 
       1.612998085887e-01       7.506129917474e+02 
       1.666939827635e-01       7.222968750237e+02 
       1.722684366325e-01       6.981035926875e+02 
       1.780292787263e-01       6.724405860574e+02 
       1.839827672089e-01       6.410421173002e+02 
       1.901353478126e-01       6.026595039036e+02 
       1.964936991824e-01       5.596031044748e+02 
       2.030647865241e-01       5.166362985088e+02 
       2.098559245447e-01       4.786981252617e+02 
       2.168748508154e-01       4.486425123282e+02 
       2.241298108922e-01       4.260610782455e+02 
       2.316296568248e-01       4.076399425660e+02 
       2.393839610748e-01       3.889452467064e+02 
       2.474031484069e-01       3.669276716369e+02 
       2.556986490256e-01       3.416975606919e+02 
       2.642830771765e-01       3.161830674675e+02 
       2.731704406786e-01       2.938105779269e+02 
       2.823763885103e-01       2.760060959911e+02 
       2.919185057733e-01       2.613649120877e+02 
       3.018166683260e-01       2.470198223194e+02 
       3.120934733930e-01       2.311486533910e+02 
       3.227747679866e-01       2.144364021673e+02 
       3.338903046612e-01       1.990174231449e+02 
       3.454745649860e-01       1.860556980550e+02 
       3.575678067091e-01       1.746337520790e+02 
       3.702174133489e-01       1.630970954272e+02 
       3.834796588061e-01       1.511397860775e+02 
       3.974220509936e-01       1.398846255457e+02 
       4.121264982778e-01       1.299609448291e+02 
       4.276936694929e-01       1.206230254928e+02 
       4.442491258996e-01       1.112172613764e+02 
       4.619521534674e-01       1.022183071336e+02 
       4.810088344665e-01       9.394062297020e+01 
       5.016920046062e-01       8.588046182691e+01 
       5.243728396961e-01       7.800854114081e+01 
       5.495729931114e-01       7.052681961458e+01 
       5.780550080866e-01       6.315474811562e+01 
       6.109884977166e-01       5.594103777978e+01 
       6.502771592455e-01       4.874276394457e+01 
       6.992540630878e-01       4.147343439287e+01 
       7.642775609941e-01       3.396712052649e+01 
       8.584905578495e-01       2.608908143871e+01 
       1.008389134427e+00       1.801491904089e+01 
       1.245063885502e+00       1.099974241451e+01 
       1.565492486059e+00       6.375251911332e+00 
       1.970805669627e+00       3.650802316756e+00 
       2.481097234618e+00       2.073399610039e+00 
       3.123516357747e+00       1.168784862712e+00 
       3.932274116922e+00       6.543948720988e-01 
       4.950439811933e+00       3.641335174769e-01 
       6.232234478800e+00       2.014779627559e-01 
       7.845918357622e+00       1.109030815772e-01 
       9.877425999272e+00       6.075568386095e-02 
       1.243494259360e+01       3.313690277494e-02 
