# Matter power spectrum P(k) at redshift z=0
# for k=2.08866e-07 to 10.4811 h/Mpc,
# number of wavenumbers equal to 139
#    1:k (h/Mpc)              2:P (Mpc/h)^3        
       2.088664732964e-07       1.222292829948e+00 
       2.629473109046e-07       1.524667925003e+00 
       3.310310516608e-07       1.901845633095e+00 
       4.167434030287e-07       2.372330886934e+00 
       5.246488602704e-07       2.959206433926e+00 
       6.604937824632e-07       3.691265311530e+00 
       8.315124070750e-07       4.604423477743e+00 
       1.046812099489e-06       5.743481902050e+00 
       1.317858353420e-06       7.164324566475e+00 
       1.659085370266e-06       8.936660211592e+00 
       2.088664732964e-06       1.114744233704e+01 
       2.629473109046e-06       1.390513523702e+01 
       3.310310516608e-06       1.734503535083e+01 
       4.167434030287e-06       2.163590896192e+01 
       5.246488602704e-06       2.698827182805e+01 
       6.604937824633e-06       3.366471680220e+01 
       8.315124070750e-06       4.199279584028e+01 
       1.046812099489e-05       5.238108781789e+01 
       1.317858353420e-05       6.533923931266e+01 
       1.659085370266e-05       8.150295930224e+01 
       2.088664732964e-05       1.016651895233e+02 
       2.629473109046e-05       1.268149708477e+02 
       3.310310516608e-05       1.581858948665e+02 
       4.167434030287e-05       1.973164830121e+02 
       5.246488602704e-05       2.461253869023e+02 
       6.604937824633e-05       3.070049643507e+02 
       8.315124070750e-05       3.829375571100e+02 
       1.046812099489e-04       4.776396572090e+02 
       1.317858353420e-04       5.957400296621e+02 
       1.659085370266e-04       7.429985993261e+02 
       2.088664732964e-04       9.265731922912e+02 
       2.629473109046e-04       1.155340502710e+03 
       3.310310516608e-04       1.440275157431e+03 
       4.167434030287e-04       1.794885706572e+03 
       5.246488602704e-04       2.235698614724e+03 
       6.604937824633e-04       2.782771068943e+03 
       8.315124070750e-04       3.460194867024e+03 
       1.046812099489e-03       4.296499095940e+03 
       1.317858353420e-03       5.324740012540e+03 
       1.659085370266e-03       6.581945722162e+03 
       2.088664732964e-03       8.107637104813e+03 
       2.629473109046e-03       9.940738767017e+03 
       3.310310516608e-03       1.211408608476e+04 
       4.167434030287e-03       1.464595392386e+04 
       5.246488602704e-03       1.752680091860e+04 
       6.604937824633e-03       2.070043453459e+04 
       8.315124070750e-03       2.403880011004e+04 
       1.046812099489e-02       2.731045976062e+04 
       1.317858353420e-02       3.014974576680e+04 
       1.659085370212e-02       3.204951221909e+04 
       2.088664572561e-02       3.243391506864e+04 
       2.629405182168e-02       3.090026938553e+04 
       3.304482099716e-02       2.767567208664e+04 
       4.043811300485e-02       2.424982139763e+04 
       4.602794316460e-02       2.225170404628e+04 
       5.025010527165e-02       2.108740997568e+04 
       5.384229183152e-02       2.026880031397e+04 
       5.710348397597e-02       1.960817495596e+04 
       6.017513353188e-02       1.901565386251e+04 
       6.313551948367e-02       1.844092571003e+04 
       6.603310720366e-02       1.785416552254e+04 
       6.890051542575e-02       1.723863780044e+04 
       7.176118331566e-02       1.658737927746e+04 
       7.463288224169e-02       1.590136127081e+04 
       7.752971095777e-02       1.518808590594e+04 
       8.046329887989e-02       1.446015955252e+04 
       8.344356753446e-02       1.373366996992e+04 
       8.647923175906e-02       1.302635723664e+04 
       8.957814049839e-02       1.235566923991e+04 
       9.274751483733e-02       1.173684968668e+04 
       9.599411795636e-02       1.118121449305e+04 
       9.932437864174e-02       1.069475653671e+04 
       1.027444822756e-01       1.027719088246e+04 
       1.062604385323e-01       9.921545264865e+03 
       1.098781320624e-01       9.614427076673e+03 
       1.136033605615e-01       9.337138648690e+03 
       1.174418633876e-01       9.067805131815e+03 
       1.213993430827e-01       8.784544523442e+03 
       1.254814816106e-01       8.469393258576e+03 
       1.296939527652e-01       8.112258880213e+03 
       1.340424319635e-01       7.713795440390e+03 
       1.385326044833e-01       7.286057179611e+03 
       1.431701731021e-01       6.850265093481e+03 
       1.479608660313e-01       6.431931291559e+03 
       1.529104460008e-01       6.054533878304e+03 
       1.580247213220e-01       5.733442203853e+03 
       1.633095597431e-01       5.471678347441e+03 
       1.687709058985e-01       5.258634326603e+03 
       1.744148031475e-01       5.072427363614e+03 
       1.802474205970e-01       4.886077259242e+03 
       1.862750861042e-01       4.676535835328e+03 
       1.925043260776e-01       4.433657587374e+03 
       1.989419129283e-01       4.164772840558e+03 
       2.055949210884e-01       3.891625670256e+03 
       2.124707926200e-01       3.640355502804e+03 
       2.195774135905e-01       3.429297432282e+03 
       2.269232026207e-01       3.260542628110e+03 
       2.345172133222e-01       3.119249628199e+03 
       2.423692527739e-01       2.981554929105e+03 
       2.504900187619e-01       2.828093023063e+03 
       2.588912592746e-01       2.655675021786e+03 
       2.675859587572e-01       2.478556142729e+03 
       2.765885569715e-01       2.317332590342e+03 
       2.859152080866e-01       2.183549336142e+03 
       2.955840899956e-01       2.071681984772e+03 
       3.056157770572e-01       1.964622210491e+03 
       3.160336938058e-01       1.848800359309e+03 
       3.268646731730e-01       1.725988438215e+03 
       3.381396511376e-01       1.609754483104e+03 
       3.498945415914e-01       1.509900188657e+03 
       3.621713523195e-01       1.422051580260e+03 
       3.750196280773e-01       1.334236800142e+03 
       3.884983442401e-01       1.242460850784e+03 
       4.026784317115e-01       1.154517977721e+03 
       4.176462030909e-01       1.076508900750e+03 
       4.335080931024e-01       1.003360157839e+03 
       4.503973617428e-01       9.289496990559e+02 
       4.684838086636e-01       8.568288750136e+02 
       4.879882513655e-01       7.904709600948e+02 
       5.092048092349e-01       7.254033885678e+02 
       5.325365060729e-01       6.610705716296e+02 
       5.585546870840e-01       5.997662331649e+02 
       5.881034009929e-01       5.386103144862e+02 
       6.224942136934e-01       4.783315250774e+02 
       6.638964173324e-01       4.173812557682e+02 
       7.161826502535e-01       3.550558563941e+02 
       7.868981898174e-01       2.897319151709e+02 
       8.918126406741e-01       2.202808448290e+02 
       1.061042296500e+00       1.495454740648e+02 
       1.320171540410e+00       9.093861407558e+01 
       1.661147737847e+00       5.329964705405e+01 
       2.091251284657e+00       3.087879534517e+01 
       2.632729364407e+00       1.772197724936e+01 
       3.314409899223e+00       1.008514321829e+01 
       4.172594847234e+00       5.695344387878e+00 
       5.252985686304e+00       3.193989357867e+00 
       6.613117168279e+00       1.779889147994e+00 
       8.325421254319e+00       9.861345951943e-01 
       1.048108438095e+01       5.434646618947e-01 
