# Matter power spectrum P(k) at redshift z=2
# for k=2.09412e-07 to 10.5066 h/Mpc,
# number of wavenumbers equal to 139
#    1:k (h/Mpc)              2:P (Mpc/h)^3        
       2.094120343273e-07       2.257438148472e-01 
       2.636341315502e-07       2.810255844112e-01 
       3.318957076248e-07       3.498451513523e-01 
       4.178319403943e-07       4.355177488762e-01 
       5.260192476216e-07       5.421704681495e-01 
       6.622189979237e-07       6.749410717361e-01 
       8.336843246590e-07       8.402254942656e-01 
       1.049546381728e-06       1.045985951903e+00 
       1.321300610814e-06       1.302134503665e+00 
       1.663418915572e-06       1.621010541844e+00 
       2.094120343273e-06       2.017975211273e+00 
       2.636341315502e-06       2.512151390021e+00 
       3.318957076248e-06       3.127344879361e+00 
       4.178319403943e-06       3.893191163530e+00 
       5.260192476216e-06       4.846582975255e+00 
       6.622189979237e-06       6.033447402529e+00 
       8.336843246590e-06       7.510958091005e+00 
       1.049546381728e-05       9.350288991300e+00 
       1.321300610814e-05       1.164004209436e+01 
       1.663418915572e-05       1.449051381549e+01 
       2.094120343273e-05       1.803900470998e+01 
       2.636341315502e-05       2.245642655793e+01 
       3.318957076248e-05       2.795552172813e+01 
       4.178319403943e-05       3.480108409461e+01 
       5.260192476216e-05       4.332266069752e+01 
       6.622189979237e-05       5.393032018166e+01 
       8.336843246590e-05       6.713419664920e+01 
       1.049546381728e-04       8.356865064511e+01 
       1.321300610814e-04       1.040220160291e+02 
       1.663418915572e-04       1.294729864735e+02 
       2.094120343273e-04       1.611346638078e+02 
       2.636341315502e-04       2.005070018668e+02 
       3.318957076248e-04       2.494375936377e+02 
       4.178319403943e-04       3.101891083826e+02 
       5.260192476216e-04       3.855088115110e+02 
       6.622189979237e-04       4.786914774096e+02 
       8.336843246590e-04       5.936227242137e+02 
       1.049546381728e-03       7.347873065380e+02 
       1.321300610814e-03       9.072224043521e+02 
       1.663418915572e-03       1.116365209725e+03 
       2.094120343273e-03       1.367671570571e+03 
       2.636341315502e-03       1.665889505712e+03 
       3.318957076248e-03       2.014013574307e+03 
       4.178319403943e-03       2.411747823516e+03 
       5.260192476216e-03       2.853342032715e+03 
       6.622189979237e-03       3.324816402620e+03 
       8.336843246590e-03       3.800675370814e+03 
       1.049546381728e-02       4.240318410382e+03 
       1.321300610814e-02       4.585417658037e+03 
       1.663418915559e-02       4.761676057195e+03 
       2.094120287774e-02       4.692756318985e+03 
       2.636310300368e-02       4.337566298960e+03 
       3.315619507256e-02       3.752422944811e+03 
       4.090234220065e-02       3.163073624152e+03 
       4.704109112093e-02       2.827477642469e+03 
       5.157994879282e-02       2.646666702600e+03 
       5.538666038538e-02       2.525393989369e+03 
       5.881612869814e-02       2.429727389174e+03 
       6.203152298028e-02       2.344576687441e+03 
       6.512126116951e-02       2.262016581582e+03 
       6.813926087222e-02       2.177665342779e+03 
       7.112139266424e-02       2.089313146372e+03 
       7.409319438065e-02       1.996299880416e+03 
       7.707387967333e-02       1.899156382783e+03 
       8.007859150174e-02       1.799327058165e+03 
       8.311974979460e-02       1.698900984731e+03 
       8.620789845416e-02       1.600329184255e+03 
       8.935225974463e-02       1.506132857639e+03 
       9.256110950431e-02       1.418619537531e+03 
       9.584203821388e-02       1.339629629507e+03 
       9.920213681784e-02       1.270331956827e+03 
       1.026481314314e-01       1.211081156193e+03 
       1.061864823942e-01       1.161344041578e+03 
       1.098234578713e-01       1.119703026941e+03 
       1.135651889158e-01       1.083951974046e+03 
       1.174177108132e-01       1.051305923042e+03 
       1.213869941603e-01       1.018743793151e+03 
       1.254789682345e-01       9.834753058597e+02 
       1.296995386096e-01       9.434715677751e+02 
       1.340546005769e-01       8.979380863403e+02 
       1.385500496664e-01       8.475726934576e+02 
       1.431917903885e-01       7.944785972896e+02 
       1.479857442049e-01       7.416988126133e+02 
       1.529378576647e-01       6.924737206645e+02 
       1.580541116006e-01       6.494250769356e+02 
       1.633405322472e-01       6.138881747986e+02 
       1.688032051304e-01       5.855545476616e+02 
       1.744482925616e-01       5.625146538853e+02 
       1.802820555653e-01       5.417426041438e+02 
       1.863108810621e-01       5.199978289440e+02 
       1.925413151373e-01       4.949493200180e+02 
       1.989801032376e-01       4.660949469262e+02 
       2.056342381746e-01       4.349717457158e+02 
       2.125110168760e-01       4.044361714964e+02 
       2.196181069256e-01       3.773200261972e+02 
       2.269636240869e-01       3.551322799419e+02 
       2.345562222262e-01       3.374202887867e+02 
       2.424051973642e-01       3.220727997810e+02 
       2.505206080084e-01       3.064749622240e+02 
       2.589134144939e-01       2.889989316926e+02 
       2.675956408197e-01       2.699307910275e+02 
       2.765805634792e-01       2.511117071825e+02 
       2.858829331131e-01       2.345021754040e+02 
       2.955192365854e-01       2.207579498309e+02 
       3.055080094357e-01       2.088715572716e+02 
       3.158702118342e-01       1.971211768233e+02 
       3.266296854691e-01       1.845713217153e+02 
       3.378137147188e-01       1.717854835960e+02 
       3.494537237132e-01       1.600366501893e+02 
       3.615861525614e-01       1.498753422378e+02 
       3.742535727964e-01       1.406292676167e+02 
       3.875061266191e-01       1.313443265944e+02 
       4.014034110681e-01       1.219638093765e+02 
       4.160169838269e-01       1.131845478874e+02 
       4.314337538294e-01       1.052766044950e+02 
       4.477606576793e-01       9.773191262099e+01 
       4.651312488468e-01       9.022892521092e+01 
       4.837152085460e-01       8.308953590789e+01 
       5.037324555351e-01       7.642668752127e+01 
       5.254747481381e-01       6.992311445613e+01 
       5.493399846196e-01       6.360553186052e+01 
       5.758890339913e-01       5.754855362156e+01 
       6.059447262214e-01       5.157711498403e+01 
       6.407747545902e-01       4.571387432753e+01 
       6.824537927736e-01       3.984297625751e+01 
       7.346385296065e-01       3.388637386107e+01 
       8.043561406595e-01       2.770767861051e+01 
       9.061973875508e-01       2.119632908952e+01 
       1.069127184861e+00       1.453623726533e+01 
       1.323943628106e+00       8.846201363436e+00 
       1.665208209431e+00       5.139312947257e+00 
       2.096350290723e+00       2.950726478527e+00 
       2.639148590509e+00       1.679425736838e+00 
       3.322491226069e+00       9.483627411924e-01 
       4.182768634962e+00       5.317264067726e-01 
       5.265793726209e+00       2.961985619419e-01 
       6.629241535191e+00       1.640234752955e-01 
       8.345720629573e+00       9.033902317439e-02 
       1.050663978030e+01       4.950883298961e-02 
