# Matter power spectrum P(k) at redshift z=0.5
# for k=2.2767e-07 to 11.4224 h/Mpc,
# number of wavenumbers equal to 139
#    1:k (h/Mpc)              2:P (Mpc/h)^3        
       2.276696892291e-07       5.203212068998e-01 
       2.866191572658e-07       6.490400952609e-01 
       3.608321405889e-07       8.096019142300e-01 
       4.542607511795e-07       1.009884079570e+00 
       5.718804032406e-07       1.259712749620e+00 
       7.199547721466e-07       1.571344911538e+00 
       9.063693579979e-07       1.960069727923e+00 
       1.141051417255e-06       2.444958645779e+00 
       1.436498625346e-06       3.049801068873e+00 
       1.808444623456e-06       3.804271498458e+00 
       2.276696892291e-06       4.745385399474e+00 
       2.866191572658e-06       5.919315216676e+00 
       3.608321405889e-06       7.383655625088e+00 
       4.542607511795e-06       9.210249131811e+00 
       5.718804032406e-06       1.148871061674e+01 
       7.199547721466e-06       1.433082365158e+01 
       9.063693579979e-06       1.787602413055e+01 
       1.141051417255e-05       2.229823993306e+01 
       1.436498625346e-05       2.781442156747e+01 
       1.808444623456e-05       3.469518109284e+01 
       2.276696892291e-05       4.327805887991e+01 
       2.866191572658e-05       5.398406430257e+01 
       3.608321405889e-05       6.733829246516e+01 
       4.542607511795e-05       8.399560982664e+01 
       5.718804032406e-05       1.047726321932e+02 
       7.199547721466e-05       1.306874916816e+02 
       9.063693579979e-05       1.630092015915e+02 
       1.141051417255e-04       2.033187629925e+02 
       1.436498625346e-04       2.535844693652e+02 
       1.808444623456e-04       3.162540587667e+02 
       2.276696892291e-04       3.943662461376e+02 
       2.866191572658e-04       4.916834083347e+02 
       3.608321405889e-04       6.128452884520e+02 
       4.542607511795e-04       7.635399753125e+02 
       5.718804032406e-04       9.506829289490e+02 
       7.199547721466e-04       1.182588341405e+03 
       9.063693579979e-04       1.469110161882e+03 
       1.141051417255e-03       1.821713067695e+03 
       1.436498625346e-03       2.253375677337e+03 
       1.808444623456e-03       2.778139344252e+03 
       2.276696892291e-03       3.410134381459e+03 
       2.866191572658e-03       4.161898017561e+03 
       3.608321405889e-03       5.041686355876e+03 
       4.542607511795e-03       6.049680217277e+03 
       5.718804032406e-03       7.149842453360e+03 
       7.199547721466e-03       8.343653681588e+03 
       9.063693579979e-03       9.553402727090e+03 
       1.141051417255e-02       1.068039730936e+04 
       1.436498625346e-02       1.158423663299e+04 
       1.808444623445e-02       1.208768746843e+04 
       2.276696844638e-02       1.200880137210e+04 
       2.866163265902e-02       1.124445944989e+04 
       3.605119931711e-02       9.909023403155e+03 
       4.454075350346e-02       8.502925535868e+03 
       5.134788360959e-02       7.661232641824e+03 
       5.635928979392e-02       7.191546302656e+03 
       6.054855015195e-02       6.865929454185e+03 
       6.431605843168e-02       6.602787239028e+03 
       6.784474966834e-02       6.366378744822e+03 
       7.123328928455e-02       6.138352208911e+03 
       7.454164154943e-02       5.908873679161e+03 
       7.780959804144e-02       5.673228243610e+03 
       8.106543045021e-02       5.430245808217e+03 
       8.433037333447e-02       5.181382531647e+03 
       8.762113833075e-02       4.930022195357e+03 
       9.095141494989e-02       4.680826857487e+03 
       9.433281241037e-02       4.439083855426e+03 
       9.777547533452e-02       4.210054848991e+03 
       1.012885000290e-01       3.998361601675e+03 
       1.048802238841e-01       3.807451328890e+03 
       1.085584312191e-01       3.639179574092e+03 
       1.123305024232e-01       3.493539325444e+03 
       1.162035235787e-01       3.368557841766e+03 
       1.201843678905e-01       3.260387324769e+03 
       1.242797565958e-01       3.163624808568e+03 
       1.284963046951e-01       3.071898296284e+03 
       1.328405553284e-01       2.978729159743e+03 
       1.373190056223e-01       2.878605755312e+03 
       1.419381261714e-01       2.768089630032e+03 
       1.467043758718e-01       2.646665899710e+03 
       1.516242135332e-01       2.517019981405e+03 
       1.567041075027e-01       2.384532563516e+03 
       1.619505444092e-01       2.256026811633e+03 
       1.673700380552e-01       2.138072594105e+03 
       1.729691394366e-01       2.035313301454e+03 
       1.787544488392e-01       1.949259575407e+03 
       1.847326309381e-01       1.877850592387e+03 
       1.909104338179e-01       1.815934874859e+03 
       1.972947128178e-01       1.756693687795e+03 
       2.038924601059e-01       1.693801798158e+03 
       2.107108408891e-01       1.623706729688e+03 
       2.177572371820e-01       1.547028435674e+03 
       2.250393000960e-01       1.468211192342e+03 
       2.325650116759e-01       1.393401301924e+03 
       2.403427574198e-01       1.327560793726e+03 
       2.483814107860e-01       1.272246959548e+03 
       2.566904312269e-01       1.225077671455e+03 
       2.652799776317e-01       1.181125702894e+03 
       2.741610395180e-01       1.135665412675e+03 
       2.833455889362e-01       1.086850393937e+03 
       2.928467568752e-01       1.036561515985e+03 
       3.026790390555e-01       9.887073663597e+02 
       3.128585374409e-01       9.462290065715e+02 
       3.234032457182e-01       9.090813263369e+02 
       3.343333895547e-01       8.746217864170e+02 
       3.456718358760e-01       8.400025360254e+02 
       3.574445900798e-01       8.045397736879e+02 
       3.696814065150e-01       7.698895515481e+02 
       3.824165464967e-01       7.379459028427e+02 
       3.956897307636e-01       7.087970612414e+02 
       4.095473514363e-01       6.809155605594e+02 
       4.240440350609e-01       6.531479245520e+02 
       4.392446878189e-01       6.259246912825e+02 
       4.552272140084e-01       6.001929484157e+02 
       4.720861921911e-01       5.758460864973e+02 
       4.899379420190e-01       5.520509160859e+02 
       5.089276581269e-01       5.286440888239e+02 
       5.292396984042e-01       5.060173525030e+02 
       5.511128321542e-01       4.840037418190e+02 
       5.748635586046e-01       4.621933086878e+02 
       6.009230842337e-01       4.406045207547e+02 
       6.298984948055e-01       4.190602225651e+02 
       6.626791144989e-01       3.972250466390e+02 
       7.006326046616e-01       3.748205236106e+02 
       7.459922475778e-01       3.513031440947e+02 
       8.026836224169e-01       3.258982286621e+02 
       8.782281837545e-01       2.973080114389e+02 
       9.882157117925e-01       2.634470286747e+02 
       1.163800771991e+00       2.219798856789e+02 
       1.439514029112e+00       1.754058537581e+02 
       1.810350568384e+00       1.326514865243e+02 
       2.279067032864e+00       9.673152725060e+01 
       2.869175316855e+00       6.779811940982e+01 
       3.612077717248e+00       4.573171008807e+01 
       4.547336427618e+00       2.984198831375e+01 
       5.724757384706e+00       1.895782877776e+01 
       7.207042547963e+00       1.179420742645e+01 
       9.073129007512e+00       7.221909191812e+00 
       1.142239267204e+01       4.370080825532e+00 
