# Matter power spectrum P(k) at redshift z=2.5
# for k=2.0949e-07 to 10.5103 h/Mpc,
# number of wavenumbers equal to 139
#    1:k (h/Mpc)              2:P (Mpc/h)^3        
       2.094896644173e-07       1.639193559271e-01 
       2.637318620431e-07       2.041457009449e-01 
       3.320187430259e-07       2.542437222734e-01 
       4.179868327872e-07       3.166359614437e-01 
       5.262142455912e-07       3.943394595372e-01 
       6.624644858228e-07       4.911116491166e-01 
       8.339933756135e-07       6.116320486467e-01 
       1.049935453828e-06       7.617285450534e-01 
       1.321790423568e-06       9.486592065258e-01 
       1.664035553295e-06       1.181463252391e+00 
       2.094896644173e-06       1.471398151145e+00 
       2.637318620431e-06       1.832483980428e+00 
       3.320187430259e-06       2.282181372509e+00 
       4.179868327872e-06       2.842235817377e+00 
       5.262142455912e-06       3.539729143882e+00 
       6.624644858228e-06       4.408389003703e+00 
       8.339933756135e-06       5.490219631542e+00 
       1.049935453828e-05       6.837532665156e+00 
       1.321790423568e-05       8.515476050161e+00 
       1.664035553295e-05       1.060518301387e+01 
       2.094896644173e-05       1.320769271408e+01 
       2.637318620431e-05       1.644883092194e+01 
       3.320187430259e-05       2.048528423563e+01 
       4.179868327872e-05       2.551215666642e+01 
       5.262142455912e-05       3.177236431621e+01 
       6.624644858228e-05       3.956830346794e+01 
       8.339933756135e-05       4.927631877184e+01 
       1.049935453828e-04       6.136459772354e+01 
       1.321790423568e-04       7.641521281311e+01 
       1.664035553295e-04       9.515109697847e+01 
       2.094896644173e-04       1.184687152321e+02 
       2.637318620431e-04       1.474769786406e+02 
       3.320187430259e-04       1.835423489091e+02 
       4.179868327872e-04       2.283388117381e+02 
       5.262142455912e-04       2.838991112336e+02 
       6.624644858228e-04       3.526602066271e+02 
       8.339933756135e-04       4.374920672494e+02 
       1.049935453828e-03       5.416966680347e+02 
       1.321790423568e-03       6.689631182367e+02 
       1.664035553295e-03       8.232496619476e+02 
       2.094896644173e-03       1.008506658723e+03 
       2.637318620431e-03       1.228122994613e+03 
       3.320187430259e-03       1.484121207926e+03 
       4.179868327872e-03       1.776031589388e+03 
       5.262142455912e-03       2.098097087381e+03 
       6.624644858228e-03       2.441500749782e+03 
       8.339933756135e-03       2.786284665874e+03 
       1.049935453828e-02       3.102359209625e+03 
       1.321790423568e-02       3.346983241586e+03 
       1.664035553285e-02       3.466304849978e+03 
       2.094896597783e-02       3.405745796130e+03 
       2.637291462627e-02       3.137162313117e+03 
       3.317152117339e-02       2.703415741028e+03 
       4.096857011408e-02       2.268340768521e+03 
       4.720277375038e-02       2.020809167051e+03 
       5.179703239178e-02       1.889106319939e+03 
       5.564060424950e-02       1.801473681679e+03 
       5.909867529155e-02       1.732612871210e+03 
       6.233834347858e-02       1.671406195771e+03 
       6.544983342074e-02       1.612074971967e+03 
       6.848802355326e-02       1.551460907233e+03 
       7.148935274657e-02       1.488000341208e+03 
       7.447972319250e-02       1.421258306201e+03 
       7.747859758657e-02       1.351658773316e+03 
       8.050129835906e-02       1.280276470388e+03 
       8.356038075214e-02       1.208636612074e+03 
       8.666649481086e-02       1.138507009068e+03 
       8.982894905064e-02       1.071686530360e+03 
       9.305609165308e-02       1.009801989023e+03 
       9.635557552747e-02       9.541297631859e+02 
       9.973454687600e-02       9.054546367458e+02 
       1.031997818327e-01       8.639743925145e+02 
       1.067577869067e-01       8.292541911804e+02 
       1.104148735981e-01       8.002360096291e+02 
       1.141772142140e-01       7.753138420693e+02 
       1.180508837750e-01       7.524893885600e+02 
       1.220418915170e-01       7.296209407176e+02 
       1.261562045774e-01       7.047573237888e+02 
       1.303997658485e-01       6.765112604025e+02 
       1.347785075724e-01       6.443844653300e+02 
       1.392983619882e-01       6.089333213629e+02 
       1.439652701609e-01       5.716877571194e+02 
       1.487851900096e-01       5.348062368197e+02 
       1.537641044794e-01       5.005457643988e+02 
       1.589080307565e-01       4.706933359734e+02 
       1.642230313962e-01       4.461130985349e+02 
       1.697152282171e-01       4.265176772950e+02 
       1.753908198025e-01       4.105205775523e+02 
       1.812561034395e-01       3.959940045631e+02 
       1.873175023280e-01       3.807075726936e+02 
       1.935815988893e-01       3.631045588208e+02 
       2.000551750258e-01       3.429138633199e+02 
       2.067452602125e-01       3.212563901169e+02 
       2.136591883655e-01       3.001146166165e+02 
       2.208046645323e-01       2.813982839740e+02 
       2.281898426011e-01       2.660734044168e+02 
       2.358234154470e-01       2.537633293601e+02 
       2.437147192463e-01       2.429946076534e+02 
       2.518738541114e-01       2.320057759973e+02 
       2.603118237738e-01       2.197497127891e+02 
       2.690406978029e-01       2.064786236776e+02 
       2.780738008562e-01       1.934531101849e+02 
       2.874259347884e-01       1.819590672077e+02 
       2.971136412129e-01       1.723799799970e+02 
       3.071555144651e-01       1.640065196866e+02 
       3.175725780782e-01       1.557022043316e+02 
       3.283887421846e-01       1.468888995862e+02 
       3.396313651621e-01       1.379697171370e+02 
       3.513319510787e-01       1.297709974388e+02 
       3.635270261284e-01       1.226159420390e+02 
       3.762592539695e-01       1.160450794223e+02 
       3.895788743204e-01       1.094542672774e+02 
       4.035455855563e-01       1.028309737257e+02 
       4.182310473730e-01       9.661926839889e+01 
       4.337222655760e-01       9.096799263949e+01 
       4.501262580765e-01       8.554749649343e+01 
       4.675766256092e-01       8.016750916590e+01 
       4.862430297406e-01       7.502908982015e+01 
       5.063452434087e-01       7.018705192285e+01 
       5.281746437099e-01       6.544288972303e+01 
       5.521283046958e-01       6.081228465393e+01 
       5.787654180719e-01       5.632732198386e+01 
       6.089054333962e-01       5.187373113267e+01 
       6.438090949208e-01       4.744889268121e+01 
       6.855361891449e-01       4.296086452119e+01 
       7.377096619638e-01       3.832582068562e+01 
       8.072760432682e-01       3.340075107671e+01 
       9.086395841472e-01       2.801534223837e+01 
       1.070541658652e+00       2.214775132111e+01 
       1.324531485122e+00       1.654787927361e+01 
       1.665796763376e+00       1.224979176783e+01 
       2.097088004742e+00       9.121362235112e+00 
       2.640077305101e+00       6.789171177879e+00 
       3.323660408463e+00       5.013325980800e+00 
       4.184240548389e+00       3.647727672413e+00 
       5.267646755426e+00       2.600567820199e+00 
       6.631574360761e+00       1.809139986720e+00 
       8.348657482965e+00       1.224902935238e+00 
       1.051033705967e+01       8.062200439817e-01 
