# Matter power spectrum P(k) at redshift z=0
# for k=1.65574e-07 to 10.4581 h/Mpc,
# number of wavenumbers equal to 140
#    1:k (h/Mpc)              2:P (Mpc/h)^3        
       1.655738884957e-07       2.284325847036e+00 
       2.084451757569e-07       2.849430400366e+00 
       2.624169287262e-07       3.554332501778e+00 
       3.303633400584e-07       4.433615758009e+00 
       4.159028039248e-07       5.530419187536e+00 
       5.235906086973e-07       6.898553686836e+00 
       6.591615226658e-07       8.605142072779e+00 
       8.298351913610e-07       1.073391222421e+01 
       1.044700610005e-06       1.338930488500e+01 
       1.315200145653e-06       1.670159765316e+01 
       1.655738884957e-06       2.083329653101e+01 
       2.084451757569e-06       2.598710857815e+01 
       2.624169287262e-06       3.241588674592e+01 
       3.303633400584e-06       4.043503466728e+01 
       4.159028039248e-06       5.043797970995e+01 
       5.235906086973e-06       6.291547288547e+01 
       6.591615226658e-06       7.847966140115e+01 
       8.298351913610e-06       9.789411273771e+01 
       1.044700610005e-05       1.221112590188e+02 
       1.315200145653e-05       1.523190903328e+02 
       1.655738884957e-05       1.899993711991e+02 
       2.084451757569e-05       2.370002035267e+02 
       2.624169287262e-05       2.956264311630e+02 
       3.303633400584e-05       3.687521933962e+02 
       4.159028039248e-05       4.599608970902e+02 
       5.235906086973e-05       5.737189782951e+02 
       6.591615226658e-05       7.155910049548e+02 
       8.298351913610e-05       8.925047741384e+02 
       1.044700610005e-04       1.113075729334e+03 
       1.315200145653e-04       1.387999569438e+03 
       1.655738884957e-04       1.730519078307e+03 
       2.084451757569e-04       2.156963957954e+03 
       2.624169287262e-04       2.687348221837e+03 
       3.303633400584e-04       3.345986788087e+03 
       4.159028039248e-04       4.162063759658e+03 
       5.235906086973e-04       5.170056786619e+03 
       6.591615226658e-04       6.409883368272e+03 
       8.298351913610e-04       7.926490733135e+03 
       1.044700610005e-03       9.768257424625e+03 
       1.315200145653e-03       1.198339759672e+04 
       1.655738884957e-03       1.461372142277e+04 
       2.084451757569e-03       1.768483628602e+04 
       2.624169287262e-03       2.119262727715e+04 
       3.303633400584e-03       2.508603040432e+04 
       4.159028039248e-03       2.924364732200e+04 
       5.235906086973e-03       3.338089418838e+04 
       6.591615226658e-03       3.726629142330e+04 
       8.298351913610e-03       4.036485510062e+04 
       1.044700610005e-02       4.203447895988e+04 
       1.315200145651e-02       4.153197192272e+04 
       1.655738875913e-02       3.822023310373e+04 
       2.084444176840e-02       3.204252384069e+04 
       2.623034428191e-02       2.417397965030e+04 
       3.263122321377e-02       1.732299968444e+04 
       3.814462416004e-02       1.396717570970e+04 
       4.212395289541e-02       1.265160441851e+04 
       4.538662435687e-02       1.201274161326e+04 
       4.829086851822e-02       1.162795874656e+04 
       5.099479414044e-02       1.132678800614e+04 
       5.358142623965e-02       1.102280714655e+04 
       5.610026631353e-02       1.066830087192e+04 
       5.858369219806e-02       1.023907918051e+04 
       6.105444599610e-02       9.728311813420e+03 
       6.352944796951e-02       9.143086247231e+03 
       6.602190766045e-02       8.501453083302e+03 
       6.854257099398e-02       7.829165688189e+03 
       7.110049632230e-02       7.156007810909e+03 
       7.370355823703e-02       6.511983254040e+03 
       7.635878625752e-02       5.923832467213e+03 
       7.907259917673e-02       5.412335147777e+03 
       8.185097110492e-02       4.990678012133e+03 
       8.469955140323e-02       4.663868789999e+03 
       8.762375263066e-02       4.428889837067e+03 
       9.062881576431e-02       4.275171139909e+03 
       9.371985893443e-02       4.185134056175e+03 
       9.690191399722e-02       4.134982543777e+03 
       1.001799540244e-01       4.096363603184e+03 
       1.035589139712e-01       4.039621651524e+03 
       1.070437062403e-01       3.938852096344e+03 
       1.106392324996e-01       3.777874921983e+03 
       1.143503928696e-01       3.555116949945e+03 
       1.181820934371e-01       3.285030305966e+03 
       1.221392529534e-01       2.994684458317e+03 
       1.262268095036e-01       2.716274462554e+03 
       1.304497278971e-01       2.478372251925e+03 
       1.348130085029e-01       2.299082565827e+03 
       1.393216982343e-01       2.182763713160e+03 
       1.439809043813e-01       2.119856721243e+03 
       1.487958119787e-01       2.088877534896e+03 
       1.537717053932e-01       2.061000848678e+03 
       1.589139948204e-01       2.008398059581e+03 
       1.642282483846e-01       1.915004314842e+03 
       1.697202305680e-01       1.784172575248e+03 
       1.753959477339e-01       1.637091200046e+03 
       1.812617015906e-01       1.501714961908e+03 
       1.873241515563e-01       1.399159581152e+03 
       1.935903871553e-01       1.335224113490e+03 
       2.000680118210e-01       1.299405922765e+03 
       2.067652398068e-01       1.270343007353e+03 
       2.136910083572e-01       1.226820221534e+03 
       2.208551078859e-01       1.160482138610e+03 
       2.282683336948e-01       1.080868054421e+03 
       2.359426638137e-01       1.007021131091e+03 
       2.438914689206e-01       9.527347517043e+02 
       2.521297621412e-01       9.175954117788e+02 
       2.606744989966e-01       8.889565078325e+02 
       2.695449411107e-01       8.528927132441e+02 
       2.787631018795e-01       8.064169003990e+02 
       2.883542986766e-01       7.589457434283e+02 
       2.983478451557e-01       7.208653738764e+02 
       3.087779300811e-01       6.925361307534e+02 
       3.196847478597e-01       6.654456298125e+02 
       3.311159737562e-01       6.334634760300e+02 
       3.431287188766e-01       6.001485260685e+02 
       3.557921651502e-01       5.718208659551e+02 
       3.691911838427e-01       5.475697251752e+02 
       3.834314093972e-01       5.221083161491e+02 
       3.986465228383e-01       4.955926516343e+02 
       4.150089893322e-01       4.716628913555e+02 
       4.327463787864e-01       4.489186003929e+02 
       4.521670632932e-01       4.252804414103e+02 
       4.737023771365e-01       4.025899420828e+02 
       4.979792064050e-01       3.799074793776e+02 
       5.259522908531e-01       3.567474237158e+02 
       5.591620297045e-01       3.329799261691e+02 
       6.002767325068e-01       3.078027457575e+02 
       6.543257436139e-01       2.801747717486e+02 
       7.316165431491e-01       2.485131197286e+02 
       8.533231745369e-01       2.110330993186e+02 
       1.047917874929e+00       1.695471474965e+02 
       1.316634304804e+00       1.320686835282e+02 
       1.657490580477e+00       1.013424193081e+02 
       2.086656792062e+00       7.636963359764e+01 
       2.626945261091e+00       5.627438587776e+01 
       3.307128144579e+00       4.041092114139e+01 
       4.163427661270e+00       2.823264283740e+01 
       5.241444882940e+00       1.919756582075e+01 
       6.598588157652e+00       1.273075832291e+01 
       8.307130313632e+00       8.256797643487e+00 
       1.045805745092e+01       5.254238923761e+00 
