# Matter power spectrum P(k) at redshift z=0.5
# for k=2.08912e-07 to 10.4811 h/Mpc,
# number of wavenumbers equal to 139
#    1:k (h/Mpc)              2:P (Mpc/h)^3        
       2.089124497727e-07       7.028981790167e-01 
       2.630051918591e-07       8.767836001036e-01 
       3.311039194652e-07       1.093685407203e+00 
       4.168351381594e-07       1.364245144556e+00 
       5.247643479576e-07       1.701736898511e+00 
       6.606391728474e-07       2.122718544481e+00 
       8.316954427242e-07       2.647844101334e+00 
       1.047042527719e-06       3.302877047819e+00 
       1.318148445375e-06       4.119954314794e+00 
       1.659450574399e-06       5.139162964757e+00 
       2.089124497727e-06       6.410506908395e+00 
       2.630051918591e-06       7.996360139521e+00 
       3.311039194652e-06       9.974526831453e+00 
       4.168351381594e-06       1.244205839382e+01 
       5.247643479576e-06       1.552001469204e+01 
       6.606391728474e-06       1.935940289305e+01 
       8.316954427242e-06       2.414858504021e+01 
       1.047042527719e-05       3.012251726731e+01 
       1.318148445375e-05       3.757427292315e+01 
       1.659450574399e-05       4.686941290967e+01 
       2.089124497727e-05       5.846390427578e+01 
       2.630051918591e-05       7.292645826670e+01 
       3.311039194652e-05       9.096636814173e+01 
       4.168351381594e-05       1.134681817036e+02 
       5.247643479576e-05       1.415348488215e+02 
       6.606391728474e-05       1.765413411210e+02 
       8.316954427242e-05       2.202011393226e+02 
       1.047042527719e-04       2.746483900214e+02 
       1.318148445375e-04       3.425388672807e+02 
       1.659450574399e-04       4.271729670819e+02 
       2.089124497727e-04       5.326434933496e+02 
       2.630051918591e-04       6.640094142206e+02 
       3.311039194652e-04       8.274932745203e+02 
       4.168351381594e-04       1.030693724202e+03 
       5.247643479576e-04       1.282795646284e+03 
       6.606391728474e-04       1.594750590413e+03 
       8.316954427242e-04       1.979391009391e+03 
       1.047042527719e-03       2.451417081583e+03 
       1.318148445375e-03       3.027104298642e+03 
       1.659450574399e-03       3.723449890760e+03 
       2.089124497727e-03       4.556540035159e+03 
       2.630051918591e-03       5.538918841047e+03 
       3.311039194652e-03       6.675641276874e+03 
       4.168351381594e-03       7.959048867434e+03 
       5.247643479576e-03       9.361749567616e+03 
       6.606391728474e-03       1.079807608965e+04 
       8.316954427242e-03       1.222395078191e+04 
       1.047042527719e-02       1.348106869877e+04 
       1.318148445375e-02       1.438382136242e+04 
       1.659450574396e-02       1.470947241639e+04 
       2.089124479438e-02       1.424580633313e+04 
       2.630038326366e-02       1.290529866836e+04 
       3.309194284399e-02       1.090118747366e+04 
       4.108028558308e-02       8.915990129079e+03 
       4.778576880780e-02       7.776742649693e+03 
       5.265413335121e-02       7.204011045351e+03 
       5.667350552699e-02       6.837183228376e+03 
       6.026445329230e-02       6.554318020826e+03 
       6.361482047230e-02       6.304812805786e+03 
       6.682417872839e-02       6.063601968684e+03 
       6.995229558212e-02       5.817668251691e+03 
       7.303846159040e-02       5.561068960977e+03 
       7.611038491712e-02       5.292680457940e+03 
       7.918874872971e-02       5.014888603792e+03 
       8.228974550146e-02       4.732589298453e+03 
       8.542657956388e-02       4.452265155250e+03 
       8.861040487000e-02       4.181075317517e+03 
       9.185093526828e-02       3.925978644669e+03 
       9.515685557983e-02       3.692944092652e+03 
       9.853610650107e-02       3.486305347562e+03 
       1.019960867415e-01       3.308298773007e+03 
       1.055437991856e-01       3.158799408368e+03 
       1.091859581612e-01       3.035256277968e+03 
       1.129290690350e-01       2.932837013436e+03 
       1.167794877114e-01       2.844816333243e+03 
       1.207434652903e-01       2.763264568268e+03 
       1.248271816347e-01       2.680071023158e+03 
       1.290367706094e-01       2.588246291421e+03 
       1.333783390917e-01       2.483293870652e+03 
       1.378579814193e-01       2.364289187130e+03 
       1.424817906483e-01       2.234255008867e+03 
       1.472558678014e-01       2.099562368754e+03 
       1.521863301649e-01       1.968402485471e+03 
       1.572793196118e-01       1.848729049684e+03 
       1.625410118783e-01       1.746263397903e+03 
       1.679776276930e-01       1.663092159867e+03 
       1.735954466350e-01       1.597161490911e+03 
       1.794008245864e-01       1.542779896550e+03 
       1.854002156346e-01       1.492145875488e+03 
       1.916001992770e-01       1.437737780570e+03 
       1.980075137819e-01       1.374956783512e+03 
       2.046290965752e-01       1.303905169006e+03 
       2.114721325521e-01       1.229219085254e+03 
       2.185441112763e-01       1.157801362933e+03 
       2.258528941211e-01       1.095555934313e+03 
       2.334067925611e-01       1.044773677098e+03 
       2.412146590357e-01       1.003337488912e+03 
       2.492859921154e-01       9.660288142442e+02 
       2.576310581191e-01       9.274062007934e+02 
       2.662610318985e-01       8.848615540275e+02 
       2.751881602576e-01       8.399158721822e+02 
       2.844259524777e-01       7.967037791313e+02 
       2.939894037323e-01       7.587578920625e+02 
       3.038952589333e-01       7.265562461301e+02 
       3.141623268712e-01       6.975569848704e+02 
       3.248118576463e-01       6.685438323035e+02 
       3.358680006264e-01       6.383337072951e+02 
       3.473583659900e-01       6.084111176960e+02 
       3.593147210115e-01       5.809434575657e+02 
       3.717738636681e-01       5.564005186399e+02 
       3.847787325300e-01       5.333278111143e+02 
       3.983798357751e-01       5.103000314819e+02 
       4.126371176510e-01       4.875245860585e+02 
       4.276224344841e-01       4.660668984008e+02 
       4.434228956861e-01       4.460544028690e+02 
       4.601454575785e-01       4.266361604340e+02 
       4.779233738586e-01       4.074822847205e+02 
       4.969254698517e-01       3.890244409248e+02 
       5.173698398828e-01       3.712386797839e+02 
       5.395447101383e-01       3.536764571986e+02 
       5.638413677291e-01       3.363435403297e+02 
       5.908083384182e-01       3.191763958018e+02 
       6.212449796924e-01       3.018592550846e+02 
       6.563727360871e-01       2.842171905963e+02 
       6.981703842795e-01       2.658422089778e+02 
       7.500827463976e-01       2.461932924396e+02 
       8.186395387211e-01       2.243629152267e+02 
       9.172791540894e-01       1.989183490984e+02 
       1.073389962704e+00       1.682116460473e+02 
       1.321641230830e+00       1.337297653993e+02 
       1.661187640366e+00       1.021762091270e+02 
       2.091261690362e+00       7.598925930783e+01 
       2.632742303658e+00       5.479707774666e+01 
       3.314426188688e+00       3.819573688038e+01 
       4.172615354455e+00       2.574017746096e+01 
       5.253011503366e+00       1.682431717247e+01 
       6.613149670034e+00       1.071502476469e+01 
       8.325462171604e+00       6.681169959477e+00 
       1.048113589276e+01       4.096625217586e+00 
