# Matter power spectrum P(k) at redshift z=2
# for k=2.09116e-07 to 10.4928 h/Mpc,
# number of wavenumbers equal to 139
#    1:k (h/Mpc)              2:P (Mpc/h)^3        
       2.091163404297e-07       2.733286233396e-01 
       2.632618749884e-07       3.390432588228e-01 
       3.314270643794e-07       4.205572395716e-01 
       4.172419535036e-07       5.216691000619e-01 
       5.252764981323e-07       6.470906316792e-01 
       6.612839317170e-07       8.026664511571e-01 
       8.325071460497e-07       9.956463582702e-01 
       1.048064401662e-06       1.235023174389e+00 
       1.319434908449e-06       1.531951805023e+00 
       1.661070135455e-06       1.900269054429e+00 
       2.091163404297e-06       2.357138413381e+00 
       2.632618749884e-06       2.923849866493e+00 
       3.314270643794e-06       3.626811985604e+00 
       4.172419535036e-06       4.498782533967e+00 
       5.252764981323e-06       5.580394910297e+00 
       6.612839317170e-06       6.922051540396e+00 
       8.325071460497e-06       8.586272389454e+00 
       1.048064401662e-05       1.065060792189e+01 
       1.319434908449e-05       1.321125205208e+01 
       1.661070135455e-05       1.638752299969e+01 
       2.091163404297e-05       2.032742005333e+01 
       2.632618749884e-05       2.521451352919e+01 
       3.314270643794e-05       3.127648579864e+01 
       4.172419535036e-05       3.879571506947e+01 
       5.252764981323e-05       4.812238278748e+01 
       6.612839317170e-05       5.969069105958e+01 
       8.325071460497e-05       7.403889843223e+01 
       1.048064401662e-04       9.183401454132e+01 
       1.319434908449e-04       1.139021233800e+02 
       1.661070135455e-04       1.412653974414e+02 
       2.091163404297e-04       1.751868538216e+02 
       2.632618749884e-04       2.172236617252e+02 
       3.314270643794e-04       2.692891208977e+02 
       4.172419535036e-04       3.337219690010e+02 
       5.252764981323e-04       4.133590958395e+02 
       6.612839317170e-04       5.116040056485e+02 
       8.325071460497e-04       6.324793742708e+02 
       1.048064401662e-03       7.806493407910e+02 
       1.319434908449e-03       9.613919969032e+02 
       1.661070135455e-03       1.180472891800e+03 
       2.091163404297e-03       1.443795791971e+03 
       2.632618749884e-03       1.756745455221e+03 
       3.314270643794e-03       2.123159494883e+03 
       4.172419535036e-03       2.543810928267e+03 
       5.252764981323e-03       3.010992219234e+03 
       6.612839317170e-03       3.516787979059e+03 
       8.325071460497e-03       4.034089553170e+03 
       1.048064401662e-02       4.521586811472e+03 
       1.319434908449e-02       4.918046411710e+03 
       1.661070135425e-02       5.143231761489e+03 
       2.091163300918e-02       5.112014338044e+03 
       2.632569622627e-02       4.774358476752e+03 
       3.309638783018e-02       4.184442788576e+03 
       4.064690068535e-02       3.587277915655e+03 
       4.646034851661e-02       3.246776518023e+03 
       5.081143105582e-02       3.055407053133e+03 
       5.449176828728e-02       2.923619678739e+03 
       5.782249550000e-02       2.818442609934e+03 
       6.095374577582e-02       2.724696587151e+03 
       6.396788342794e-02       2.634182558032e+03 
       6.691558354513e-02       2.542225447461e+03 
       6.983078858171e-02       2.446341804318e+03 
       7.273779497156e-02       2.345634343226e+03 
       7.565496492125e-02       2.240447193487e+03 
       7.859682600310e-02       2.132102586236e+03 
       8.157533297621e-02       2.022643897356e+03 
       8.460066401465e-02       1.914559521445e+03 
       8.768174357590e-02       1.810488288914e+03 
       9.082659724262e-02       1.712923184960e+03 
       9.404259917110e-02       1.623935032314e+03 
       9.733664854016e-02       1.544938435216e+03 
       1.007152976488e-01       1.476517288133e+03 
       1.041848462131e-01       1.418321399505e+03 
       1.077514114858e-01       1.369045924035e+03 
       1.114209807379e-01       1.326510435881e+03 
       1.151994506729e-01       1.287859092358e+03 
       1.190926570555e-01       1.249902019830e+03 
       1.231063969916e-01       1.209592757603e+03 
       1.272464457322e-01       1.164588083089e+03 
       1.315185694968e-01       1.113772899621e+03 
       1.359285355652e-01       1.057590656892e+03 
       1.404821207210e-01       9.980312171415e+02 
       1.451851190262e-01       9.382153436745e+02 
       1.500433498387e-01       8.816495202596e+02 
       1.550626669414e-01       8.313463556329e+02 
       1.602489696295e-01       7.890498898153e+02 
       1.656082165804e-01       7.547631939588e+02 
       1.711464433243e-01       7.267007417570e+02 
       1.768697841228e-01       7.017273050249e+02 
       1.827844990621e-01       6.762733095414e+02 
       1.888970071717e-01       6.475488770140e+02 
       1.952139263956e-01       6.146292832816e+02 
       2.017421212805e-01       5.788543130988e+02 
       2.084887593074e-01       5.432159650997e+02 
       2.154613768965e-01       5.109565760331e+02 
       2.226679562707e-01       4.840653576565e+02 
       2.301170145869e-01       4.623980768713e+02 
       2.378177070573e-01       4.438224877327e+02 
       2.457799462116e-01       4.253769950487e+02 
       2.540145400266e-01       4.049526013049e+02 
       2.625333524118e-01       3.825260725145e+02 
       2.713494905543e-01       3.600155312958e+02 
       2.804775249630e-01       3.397743053993e+02 
       2.899337498241e-01       3.228515182555e+02 
       2.997364936512e-01       3.083247586908e+02 
       3.099064933950e-01       2.941893307905e+02 
       3.204673495114e-01       2.791181057309e+02 
       3.314460854532e-01       2.635485016033e+02 
       3.428738433697e-01       2.489970868730e+02 
       3.547867595924e-01       2.363272197095e+02 
       3.672270804482e-01       2.248837429486e+02 
       3.802446037979e-01       2.134363259586e+02 
       3.938985687872e-01       2.017388413304e+02 
       4.082601728243e-01       1.906287217467e+02 
       4.234159828986e-01       1.805800371270e+02 
       4.394726491757e-01       1.710062015210e+02 
       4.565635602229e-01       1.613941877198e+02 
       4.748584715630e-01       1.521203102058e+02 
       4.945778280883e-01       1.434125572169e+02 
       5.160147589350e-01       1.348410439999e+02 
       5.395701264168e-01       1.263870843212e+02 
       5.658108403346e-01       1.181827097018e+02 
       5.955719338794e-01       1.099577490173e+02 
       6.301462652277e-01       1.017203716252e+02 
       6.716626279265e-01       9.326521255193e+01 
       7.239008865658e-01       8.440880318496e+01 
       7.941833021067e-01       7.481551878220e+01 
       8.977764236325e-01       6.405636918825e+01 
       1.064362907774e+00       5.198205414921e+01 
       1.321841311540e+00       4.011979559313e+01 
       1.663004670266e+00       3.051486841100e+01 
       2.093584830207e+00       2.301505558513e+01 
       2.635667111757e+00       1.709278683877e+01 
       3.318108304011e+00       1.242188300053e+01 
       4.177250863004e+00       8.792368421423e+00 
       5.258847262875e+00       6.042512062148e+00 
       6.620496455978e+00       4.026906095303e+00 
       8.334711227124e+00       2.605337230036e+00 
       1.049277976379e+01       1.641878484306e+00 
