# Matter power spectrum P(k) at redshift z=2
# for k=2.2767e-07 to 11.4224 h/Mpc,
# number of wavenumbers equal to 139
#    1:k (h/Mpc)              2:P (Mpc/h)^3        
       2.276696892291e-07       1.472951145257e-01 
       2.866191572658e-07       1.837334974962e-01 
       3.608321405889e-07       2.291861355902e-01 
       4.542607511795e-07       2.858830068397e-01 
       5.718804032406e-07       3.566057491169e-01 
       7.199547721466e-07       4.448241312932e-01 
       9.063693579979e-07       5.548662856666e-01 
       1.141051417255e-06       6.921310525319e-01 
       1.436498625346e-06       8.633528549284e-01 
       1.808444623456e-06       1.076932099410e+00 
       2.276696892291e-06       1.343347309564e+00 
       2.866191572658e-06       1.675669214273e+00 
       3.608321405889e-06       2.090202007766e+00 
       4.542607511795e-06       2.607283238643e+00 
       5.718804032406e-06       3.252281561214e+00 
       7.199547721466e-06       4.056841280641e+00 
       9.063693579979e-06       5.060434714211e+00 
       1.141051417255e-05       6.312298450107e+00 
       1.436498625346e-05       7.873848351691e+00 
       1.808444623456e-05       9.821691481863e+00 
       2.276696892291e-05       1.225138214322e+01 
       2.866191572658e-05       1.528210510956e+01 
       3.608321405889e-05       1.906251352642e+01 
       4.542607511795e-05       2.377800330136e+01 
       5.718804032406e-05       2.965977184510e+01 
       7.199547721466e-05       3.699608778485e+01 
       9.063693579979e-05       4.614628941108e+01 
       1.141051417255e-04       5.755812968693e+01 
       1.436498625346e-04       7.178918351212e+01 
       1.808444623456e-04       8.953310406538e+01 
       2.276696892291e-04       1.116515072215e+02 
       2.866191572658e-04       1.392120778475e+02 
       3.608321405889e-04       1.735329566368e+02 
       4.542607511795e-04       2.162323217554e+02 
       5.718804032406e-04       2.692800343536e+02 
       7.199547721466e-04       3.350452129769e+02 
       9.063693579979e-04       4.163303542517e+02 
       1.141051417255e-03       5.163806083541e+02 
       1.436498625346e-03       6.388540265930e+02 
       1.808444623456e-03       7.877186047579e+02 
       2.276696892291e-03       9.669901372261e+02 
       2.866191572658e-03       1.180223561533e+03 
       3.608321405889e-03       1.429760257238e+03 
       4.542607511795e-03       1.715652232024e+03 
       5.718804032406e-03       2.034141757589e+03 
       7.199547721466e-03       2.375731644069e+03 
       9.063693579979e-03       2.722954822955e+03 
       1.141051417255e-02       3.047991316760e+03 
       1.436498625346e-02       3.310987893793e+03 
       1.808444623445e-02       3.461217154229e+03 
       2.276696844638e-02       3.445947305224e+03 
       2.866163265902e-02       3.234147406419e+03 
       3.605119931711e-02       2.856535517266e+03 
       4.454075350346e-02       2.455167783188e+03 
       5.134788360959e-02       2.213349196863e+03 
       5.635928979392e-02       2.077683247896e+03 
       6.054855015195e-02       1.983142913522e+03 
       6.431605843168e-02       1.906350216022e+03 
       6.784474966834e-02       1.837039788357e+03 
       7.123328928455e-02       1.769934414272e+03 
       7.454164154943e-02       1.702208915519e+03 
       7.780959804144e-02       1.632516441189e+03 
       8.106543045021e-02       1.560536522677e+03 
       8.433037333447e-02       1.486709885846e+03 
       8.762113833075e-02       1.412036286843e+03 
       9.095141494989e-02       1.337886559466e+03 
       9.433281241037e-02       1.265813679132e+03 
       9.777547533452e-02       1.197364122879e+03 
       1.012885000290e-01       1.133899342503e+03 
       1.048802238841e-01       1.076439050753e+03 
       1.085584312191e-01       1.025537667858e+03 
       1.123305024232e-01       9.812030623959e+02 
       1.162035235787e-01       9.428647342092e+02 
       1.201843678905e-01       9.094004445613e+02 
       1.242797565958e-01       8.792325901213e+02 
       1.284963046951e-01       8.505039668281e+02 
       1.328405553284e-01       8.213339466648e+02 
       1.373190056223e-01       7.901326369047e+02 
       1.419381261714e-01       7.559193188009e+02 
       1.467043758718e-01       7.185622105081e+02 
       1.516242135332e-01       6.788524920831e+02 
       1.567041075027e-01       6.383568262263e+02 
       1.619505444092e-01       5.990588905083e+02 
       1.673700380552e-01       5.628728469496e+02 
       1.729691394366e-01       5.311578044778e+02 
       1.787544488392e-01       5.043615173826e+02 
       1.847326309381e-01       4.818872078592e+02 
       1.909104338179e-01       4.622351849083e+02 
       1.972947128178e-01       4.434253504396e+02 
       2.038924601059e-01       4.236306431931e+02 
       2.107108408891e-01       4.018322490048e+02 
       2.177572371820e-01       3.782134095727e+02 
       2.250393000960e-01       3.540566421668e+02 
       2.325650116759e-01       3.311404890633e+02 
       2.403427574198e-01       3.109112935290e+02 
       2.483814107860e-01       2.938319069059e+02 
       2.566904312269e-01       2.792142131643e+02 
       2.652799776317e-01       2.656227402845e+02 
       2.741610395180e-01       2.516783039301e+02 
       2.833455889362e-01       2.368370607149e+02 
       2.928467568752e-01       2.216389217830e+02 
       3.026790390555e-01       2.072233976951e+02 
       3.128585374409e-01       1.944603217875e+02 
       3.234032457182e-01       1.833460284447e+02 
       3.343333895547e-01       1.731028423842e+02 
       3.456718358760e-01       1.628818016676e+02 
       3.574445900798e-01       1.524701282757e+02 
       3.696814065150e-01       1.423565449290e+02 
       3.824165464967e-01       1.331141165724e+02 
       3.956897307636e-01       1.247782944132e+02 
       4.095473514363e-01       1.168874139057e+02 
       4.240440350609e-01       1.090839223933e+02 
       4.392446878189e-01       1.014974405563e+02 
       4.552272140084e-01       9.442817156829e+01 
       4.720861921911e-01       8.785172379973e+01 
       4.899379420190e-01       8.150774251540e+01 
       5.089276581269e-01       7.534697210367e+01 
       5.292396984042e-01       6.950769787420e+01 
       5.511128321542e-01       6.394995305511e+01 
       5.748635586046e-01       5.855164845856e+01 
       6.009230842337e-01       5.334326901935e+01 
       6.298984948055e-01       4.829875541206e+01 
       6.626791144989e-01       4.334882743200e+01 
       7.006326046616e-01       3.847175995331e+01 
       7.459922475778e-01       3.359212508090e+01 
       8.026836224169e-01       2.863359264502e+01 
       8.782281837545e-01       2.348666633199e+01 
       9.882157117925e-01       1.805257541574e+01 
       1.163800771991e+00       1.246518941447e+01 
       1.439514029112e+00       7.632488752440e+00 
       1.810350568384e+00       4.451205722842e+00 
       2.279067032864e+00       2.564316206587e+00 
       2.869175316855e+00       1.464214815316e+00 
       3.612077717248e+00       8.293970581764e-01 
       4.547336427618e+00       4.664135772130e-01 
       5.724757384706e+00       2.605666687456e-01 
       7.207042547963e+00       1.446967861913e-01 
       9.073129007512e+00       7.991249992737e-02 
       1.142239267204e+01       4.391196020269e-02 
