# Matter power spectrum P(k) at redshift z=1
# for k=2.09054e-07 to 10.4899 h/Mpc,
# number of wavenumbers equal to 139
#    1:k (h/Mpc)              2:P (Mpc/h)^3        
       2.090538448111e-07       3.254092339504e-01 
       2.631831976660e-07       4.059101136040e-01 
       3.313280154990e-07       5.063255835997e-01 
       4.171172583510e-07       6.315821851488e-01 
       5.251195162360e-07       7.878252043749e-01 
       6.610863032186e-07       9.827201695373e-01 
       8.322583465110e-07       1.225828933629e+00 
       1.047751181600e-06       1.529078793289e+00 
       1.319040587754e-06       1.907347659375e+00 
       1.660573715112e-06       2.379193987774e+00 
       2.090538448111e-06       2.967767281947e+00 
       2.631831976660e-06       3.701943831784e+00 
       3.313280154990e-06       4.617743410401e+00 
       4.171172583510e-06       5.760096418153e+00 
       5.251195162360e-06       7.185048155976e+00 
       6.610863032186e-06       8.962508332671e+00 
       8.322583465110e-06       1.117968062081e+01 
       1.047751181600e-05       1.394534036556e+01 
       1.319040587754e-05       1.739517000865e+01 
       1.660573715112e-05       2.169841337643e+01 
       2.090538448111e-05       2.706617409937e+01 
       2.631831976660e-05       3.376176290155e+01 
       3.313280154990e-05       4.211359670597e+01 
       4.171172583510e-05       5.253127307453e+01 
       5.251195162360e-05       6.552559026354e+01 
       6.610863032186e-05       8.173345885478e+01 
       8.322583465110e-05       1.019488559199e+02 
       1.047751181600e-04       1.271612005683e+02 
       1.319040587754e-04       1.586027606196e+02 
       1.660573715112e-04       1.978068869384e+02 
       2.090538448111e-04       2.466789179163e+02 
       2.631831976660e-04       3.075813230193e+02 
       3.313280154990e-04       3.834337693486e+02 
       4.171172583510e-04       4.778269138862e+02 
       5.251195162360e-04       5.951455546084e+02 
       6.610863032186e-04       7.406925739133e+02 
       8.322583465110e-04       9.208007852618e+02 
       1.047751181600e-03       1.142913434216e+03 
       1.319040587754e-03       1.415590489516e+03 
       1.660573715112e-03       1.748336700983e+03 
       2.090538448111e-03       2.151093713232e+03 
       2.631831976660e-03       2.633352499017e+03 
       3.313280154990e-03       3.202590131487e+03 
       4.171172583510e-03       3.861937589887e+03 
       5.251195162360e-03       4.606645373566e+03 
       6.610863032186e-03       5.419219822995e+03 
       8.322583465110e-03       6.263149668030e+03 
       1.047751181600e-02       7.075368219887e+03 
       1.319040587754e-02       7.759412662903e+03 
       1.660573715077e-02       8.185245033574e+03 
       2.090538331795e-02       8.209987386842e+03 
       2.631778381875e-02       7.741307256677e+03 
       3.308352914606e-02       6.851827538758e+03 
       4.059346011759e-02       5.928495447777e+03 
       4.634637554170e-02       5.397030495477e+03 
       5.066258464357e-02       5.095517653076e+03 
       5.431919428415e-02       4.886861891311e+03 
       5.763126068778e-02       4.719732685450e+03 
       6.074654580334e-02       4.570128556876e+03 
       6.374630261526e-02       4.424891234914e+03 
       6.668060690220e-02       4.276400236504e+03 
       6.958304292430e-02       4.120530567124e+03 
       7.247767556588e-02       3.955731684800e+03 
       7.538270769153e-02       3.782507709118e+03 
       7.831255138030e-02       3.603016269490e+03 
       8.127907387115e-02       3.420666209393e+03 
       8.429238437236e-02       3.239672278574e+03 
       8.736135106871e-02       3.064567909513e+03 
       9.049395216731e-02       2.899703436242e+03 
       9.369752080354e-02       2.748768068031e+03 
       9.697891973771e-02       2.614374372163e+03 
       1.003446682155e-01       2.497737236797e+03 
       1.038010353733e-01       2.398469888523e+03 
       1.073541097051e-01       2.314519410405e+03 
       1.110098510595e-01       2.242272697885e+03 
       1.147741296920e-01       2.176874006566e+03 
       1.186527556208e-01       2.112794001435e+03 
       1.226515007027e-01       2.044650049043e+03 
       1.267761152848e-01       1.968193079229e+03 
       1.310323409154e-01       1.881262844181e+03 
       1.354259203559e-01       1.784428152363e+03 
       1.399626059684e-01       1.681037427764e+03 
       1.446481674536e-01       1.576547824099e+03 
       1.494883998460e-01       1.477239186311e+03 
       1.544891326312e-01       1.388644215595e+03 
       1.596562408263e-01       1.314120773054e+03 
       1.649956588469e-01       1.253932545907e+03 
       1.705133979717e-01       1.205076094883e+03 
       1.762155682113e-01       1.161989522893e+03 
       1.821084053835e-01       1.118155467254e+03 
       1.881983042012e-01       1.068313329137e+03 
       1.944918582000e-01       1.010522954403e+03 
       2.009959073634e-01       9.470352258010e+02 
       2.077175943727e-01       8.832969817194e+02 
       2.146644305071e-01       8.254153405654e+02 
       2.218443723787e-01       7.773180624160e+02 
       2.292659109098e-01       7.389837615020e+02 
       2.369381742732e-01       7.065628935626e+02 
       2.448710469472e-01       6.744523045014e+02 
       2.530753076093e-01       6.384835265187e+02 
       2.615627893607e-01       5.984061468307e+02 
       2.703465667829e-01       5.578009931227e+02 
       2.794411756685e-01       5.212856154525e+02 
       2.888628730444e-01       4.910890423790e+02 
       2.986299474695e-01       4.655779247885e+02 
       3.087630927856e-01       4.408367134099e+02 
       3.192858628299e-01       4.141205762664e+02 
       3.302252305955e-01       3.861701313779e+02 
       3.416122836616e-01       3.600256038830e+02 
       3.534830995257e-01       3.375581824026e+02 
       3.658798614766e-01       3.175524333954e+02 
       3.788523005617e-01       2.974757205909e+02 
       3.924595863994e-01       2.767297032979e+02 
       4.067728462982e-01       2.570428773651e+02 
       4.218785805644e-01       2.395020356028e+02 
       4.378833832806e-01       2.229279090442e+02 
       4.549206103292e-01       2.061906445056e+02 
       4.731600308178e-01       1.900926142354e+02 
       4.928221909272e-01       1.752034375521e+02 
       5.142004855603e-01       1.606123020845e+02 
       5.376963540002e-01       1.462866825924e+02 
       5.638778859438e-01       1.325988668686e+02 
       5.935825063730e-01       1.189991357533e+02 
       6.281080242932e-01       1.056115900921e+02 
       6.695939249050e-01       9.211886743479e+01 
       7.218445094705e-01       7.835505078183e+01 
       7.922407130048e-01       6.397747154185e+01 
       8.961821127799e-01       4.873481207020e+01 
       1.063474777453e+00       3.318614514678e+01 
       1.321417198729e+00       2.018038585311e+01 
       1.662541615578e+00       1.179646660327e+01 
       2.093003136901e+00       6.816438696594e+00 
       2.634934807164e+00       3.902907693735e+00 
       3.317186387151e+00       2.216337055134e+00 
       4.176090238442e+00       1.249217239654e+00 
       5.257386123120e+00       6.993465851793e-01 
       6.618656990010e+00       3.890999512690e-01 
       8.332395476673e+00       2.152655592029e-01 
       1.048986440670e+01       1.184771743617e-01 
