# Matter power spectrum P(k) at redshift z=0.5
# for k=2.10475e-07 to 10.5619 h/Mpc,
# number of wavenumbers equal to 139
#    1:k (h/Mpc)              2:P (Mpc/h)^3        
       2.104751089585e-07       7.592917412957e-01 
       2.649724632180e-07       9.471279998288e-01 
       3.335805673709e-07       1.181431851318e+00 
       4.199530531439e-07       1.473698611618e+00 
       5.286895703634e-07       1.838267347343e+00 
       6.655807350810e-07       2.293024372523e+00 
       8.379165009942e-07       2.860280777642e+00 
       1.054874376063e-06       3.567867043860e+00 
       1.328008158276e-06       4.450498443781e+00 
       1.671863217524e-06       5.551478215890e+00 
       2.104751089585e-06       6.924822064115e+00 
       2.649724632180e-06       8.637908205674e+00 
       3.335805673709e-06       1.077478295622e+01 
       4.199530531439e-06       1.344028398609e+01 
       5.286895703634e-06       1.676518344594e+01 
       6.655807350810e-06       2.091260311361e+01 
       8.379165009942e-06       2.608601594365e+01 
       1.054874376063e-05       3.253922586842e+01 
       1.328008158276e-05       4.058881410442e+01 
       1.671863217524e-05       5.062965980168e+01 
       2.104751089585e-05       6.315429107330e+01 
       2.649724632180e-05       7.877700499806e+01 
       3.335805673709e-05       9.826391866295e+01 
       4.199530531439e-05       1.225703835546e+02 
       5.286895703634e-05       1.528875160451e+02 
       6.655807350810e-05       1.906999635817e+02 
       8.379165009942e-05       2.378574203741e+02 
       1.054874376063e-04       2.966627743285e+02 
       1.328008158276e-04       3.699799916366e+02 
       1.671863217524e-04       4.613646870309e+02 
       2.104751089585e-04       5.752193435845e+02 
       2.649724632180e-04       7.169725912714e+02 
       3.335805673709e-04       8.932767796753e+02 
       4.199530531439e-04       1.112209314587e+03 
       5.286895703634e-04       1.383451243191e+03 
       6.655807350810e-04       1.718404856036e+03 
       8.379165009942e-04       2.130203690671e+03 
       1.054874376063e-03       2.633541898000e+03 
       1.328008158276e-03       3.244136383183e+03 
       1.671863217524e-03       3.977479127635e+03 
       2.104751089585e-03       4.846680455514e+03 
       2.649724632180e-03       5.859266199176e+03 
       3.335805673709e-03       7.012718749486e+03 
       4.199530531439e-03       8.289088822687e+03 
       5.286895703634e-03       9.648536277490e+03 
       6.655807350810e-03       1.102284448322e+04 
       8.379165009942e-03       1.231019160544e+04 
       1.054874376063e-02       1.337196485706e+04 
       1.328008158276e-02       1.403498994419e+04 
       1.671863217524e-02       1.410643217838e+04 
       2.104751086559e-02       1.341810129748e+04 
       2.649721078327e-02       1.192334955947e+04 
       3.335105434280e-02       9.840504226947e+03 
       4.167766322004e-02       7.766560076080e+03 
       4.939287990055e-02       6.503097831193e+03 
       5.491345821635e-02       5.913037095877e+03 
       5.934857887151e-02       5.558248660993e+03 
       6.325424725246e-02       5.292457856524e+03 
       6.686822779615e-02       5.060430123892e+03 
       7.031207810609e-02       4.836767294277e+03 
       7.365690508043e-02       4.609226071571e+03 
       7.694856124704e-02       4.372866232259e+03 
       8.021889463004e-02       4.127456894085e+03 
       8.349138334659e-02       3.875986571696e+03 
       8.678421449454e-02       3.623554706392e+03 
       9.011208446187e-02       3.376397251971e+03 
       9.348731002449e-02       3.140987806258e+03 
       9.692054482439e-02       2.923234374692e+03 
       1.004212583453e-01       2.727816679679e+03 
       1.039980658028e-01       2.557700674848e+03 
       1.076589610045e-01       2.413843212953e+03 
       1.114114840373e-01       2.295077710757e+03 
       1.152628439449e-01       2.198168845536e+03 
       1.192200095513e-01       2.118043163364e+03 
       1.232897772560e-01       2.048233909135e+03 
       1.274788218824e-01       1.981592275873e+03 
       1.317937348935e-01       1.911276500451e+03 
       1.362410531224e-01       1.831922883834e+03 
       1.408272803962e-01       1.740757167454e+03 
       1.455589039177e-01       1.638298605248e+03 
       1.504424069290e-01       1.528335627083e+03 
       1.554842789529e-01       1.417050175712e+03 
       1.606910247659e-01       1.311474302288e+03 
       1.660691731567e-01       1.217719444050e+03 
       1.716252864713e-01       1.139481945250e+03 
       1.773659719044e-01       1.077186551280e+03 
       1.832978954756e-01       1.027923618966e+03 
       1.894277996141e-01       9.862123515031e+02 
       1.957625252637e-01       9.455481750116e+02 
       2.023090394155e-01       9.004789377319e+02 
       2.090744689763e-01       8.485486250963e+02 
       2.160661418917e-01       7.911748481295e+02 
       2.232916364726e-01       7.328451455120e+02 
       2.307588399282e-01       6.789199212134e+02 
       2.384760172023e-01       6.331534113752e+02 
       2.464518913521e-01       5.961360320849e+02 
       2.546957369229e-01       5.652976988583e+02 
       2.632174880712e-01       5.364203367016e+02 
       2.720278636058e-01       5.059774839989e+02 
       2.811385116764e-01       4.730405376674e+02 
       2.905621775923e-01       4.394844669250e+02 
       3.003128992461e-01       4.083178131762e+02 
       3.104062359323e-01       3.814179605640e+02 
       3.208595380944e-01       3.583534943337e+02 
       3.316922678437e-01       3.370437009085e+02 
       3.429263832011e-01       3.156153106063e+02 
       3.545868032035e-01       2.938636607276e+02 
       3.667019767619e-01       2.730288585631e+02 
       3.793045861169e-01       2.542463166012e+02 
       3.924324269278e-01       2.373802477187e+02 
       4.061295230157e-01       2.214057941124e+02 
       4.204475569855e-01       2.057052034369e+02 
       4.354477322741e-01       1.906185706803e+02 
       4.512032339354e-01       1.766626402841e+02 
       4.678025352676e-01       1.637019298334e+02 
       4.853539233497e-01       1.512740367351e+02 
       5.039918207371e-01       1.393317203610e+02 
       5.238858214396e-01       1.280809592810e+02 
       5.452539474833e-01       1.174225877403e+02 
       5.683826857567e-01       1.071691397918e+02 
       5.936583326205e-01       9.735203422892e+01 
       6.216180298906e-01       8.791658193638e+01 
       6.530368552106e-01       7.875254305261e+01 
       6.890848889380e-01       6.981175201928e+01 
       7.316295315873e-01       6.097822462374e+01 
       7.838626933964e-01       5.213262122442e+01 
       8.517090987067e-01       4.310908554236e+01 
       9.471593638257e-01       3.372712458395e+01 
       1.095203443556e+00       2.402067269567e+01 
       1.334379856777e+00       1.504075269227e+01 
       1.674079954548e+00       8.711918180137e+00 
       2.107386180667e+00       4.962716930066e+00 
       2.653041158923e+00       2.804702871820e+00 
       3.339980932782e+00       1.573990434771e+00 
       4.204786871187e+00       8.776884410634e-01 
       5.293513043316e+00       4.865701536333e-01 
       6.664138087895e+00       2.683065497693e-01 
       8.389652786556e+00       1.472265860296e-01 
       1.056194708913e+01       8.042212706478e-02 
