# Matter power spectrum P(k) at redshift z=2
# for k=2.03284e-07 to 10.2027 h/Mpc,
# number of wavenumbers equal to 139
#    1:k (h/Mpc)              2:P (Mpc/h)^3        
       2.032838243257e-07       2.229673111925e-01 
       2.559191722503e-07       2.781257480012e-01 
       3.221831493112e-07       3.469294726277e-01 
       4.056045539197e-07       4.327541043313e-01 
       5.106258800690e-07       5.398103346509e-01 
       6.428398963386e-07       6.733505107431e-01 
       8.092874812158e-07       8.399263233791e-01 
       1.018832575549e-06       1.047710243073e+00 
       1.282634219723e-06       1.306896472920e+00 
       1.614740813246e-06       1.630201092090e+00 
       2.032838243257e-06       2.033485921504e+00 
       2.559191722503e-06       2.536536725015e+00 
       3.221831493112e-06       3.164033915683e+00 
       4.056045539197e-06       3.946763393467e+00 
       5.106258800690e-06       4.923126896133e+00 
       6.428398963386e-06       6.141025953752e+00 
       8.092874812158e-06       7.660211818597e+00 
       1.018832575549e-05       9.555216566215e+00 
       1.282634219723e-05       1.191900899992e+01 
       1.614740813246e-05       1.486755433888e+01 
       2.032838243257e-05       1.854550067836e+01 
       2.559191722503e-05       2.313326976592e+01 
       3.221831493112e-05       2.885589715376e+01 
       4.056045539197e-05       3.599404982011e+01 
       5.106258800690e-05       4.489775071637e+01 
       6.428398963386e-05       5.600346184459e+01 
       8.092874812158e-05       6.985532086066e+01 
       1.018832575549e-04       8.713148869673e+01 
       1.282634219723e-04       1.086767351985e+02 
       1.614740813246e-04       1.355425387631e+02 
       2.032838243257e-04       1.690360436403e+02 
       2.559191722503e-04       2.107790872829e+02 
       3.221831493112e-04       2.627779732582e+02 
       4.056045539197e-04       3.275034047847e+02 
       5.106258800690e-04       4.079776458751e+02 
       6.428398963386e-04       5.078624168345e+02 
       8.092874812158e-04       6.315369399938e+02 
       1.018832575549e-03       7.841521472070e+02 
       1.282634219723e-03       9.716406540980e+02 
       1.614740813246e-03       1.200632343155e+03 
       2.032838243257e-03       1.478160228595e+03 
       2.559191722503e-03       1.811037406770e+03 
       3.221831493112e-03       2.204868930916e+03 
       4.056045539197e-03       2.662498504408e+03 
       5.106258800690e-03       3.181688785294e+03 
       6.428398963386e-03       3.751962255560e+03 
       8.092874812158e-03       4.350576264941e+03 
       1.018832575549e-02       4.937891687340e+03 
       1.282634219723e-02       5.453483900605e+03 
       1.614740812906e-02       5.816791701279e+03 
       2.032837600384e-02       5.940611669427e+03 
       2.559004577816e-02       5.768758939366e+03 
       3.210038300100e-02       5.342484498356e+03 
       3.873283673272e-02       4.894038166777e+03 
       4.354016506020e-02       4.615782064548e+03 
       4.728445150131e-02       4.426569656827e+03 
       5.052723524306e-02       4.275620871550e+03 
       5.349997478030e-02       4.142157756290e+03 
       5.631647305570e-02       4.015953217130e+03 
       5.904147524117e-02       3.891420200634e+03 
       6.171588396584e-02       3.765517262523e+03 
       6.436765875055e-02       3.636864676432e+03 
       6.701714432940e-02       3.505294951037e+03 
       6.967992863639e-02       3.371566770288e+03 
       7.236848973714e-02       3.237128139257e+03 
       7.509320041317e-02       3.103884967561e+03 
       7.786296977776e-02       2.973959295253e+03 
       8.068566882724e-02       2.849439977248e+03 
       8.356842162589e-02       2.732136911385e+03 
       8.651780974445e-02       2.623357837808e+03 
       8.954001884395e-02       2.523725875651e+03 
       9.264094555374e-02       2.433059965916e+03 
       9.582627640282e-02       2.350338167852e+03 
       9.910154664214e-02       2.273765080605e+03 
       1.024721843265e-01       2.200958549202e+03 
       1.059435434350e-01       2.129259958492e+03 
       1.095209287708e-01       2.056148802956e+03 
       1.132096146914e-01       1.979705114042e+03 
       1.170148592648e-01       1.899027928807e+03 
       1.209419151400e-01       1.814493833355e+03 
       1.249960382209e-01       1.727751732941e+03 
       1.291824950991e-01       1.641405914357e+03 
       1.335065701170e-01       1.558426742809e+03 
       1.379735728791e-01       1.481420312324e+03 
       1.425888469972e-01       1.411942673943e+03 
       1.473577808320e-01       1.350052221257e+03 
       1.522858209831e-01       1.294251182311e+03 
       1.573784892665e-01       1.241889977070e+03 
       1.626414039168e-01       1.189987705215e+03 
       1.680803057482e-01       1.136256799889e+03 
       1.737010900156e-01       1.079960835790e+03 
       1.795098447379e-01       1.022198528269e+03 
       1.855128962823e-01       9.654040900777e+02 
       1.917168630783e-01       9.122299651315e+02 
       1.981287184328e-01       8.643199238524e+02 
       2.047558635768e-01       8.215679568208e+02 
       2.116062123000e-01       7.822497342838e+02 
       2.186882888405e-01       7.440047922353e+02 
       2.260113411220e-01       7.051793750340e+02 
       2.335854720007e-01       6.657338091784e+02 
       2.414217919344e-01       6.270889124422e+02 
       2.495325974894e-01       5.909888087162e+02 
       2.579315814146e-01       5.582057008873e+02 
       2.666340817683e-01       5.280553926232e+02 
       2.756573799257e-01       4.990789942415e+02 
       2.850210604563e-01       4.703083930247e+02 
       2.947474501771e-01       4.419892758720e+02 
       3.048621596495e-01       4.150966180348e+02 
       3.153947587413e-01       3.901867527346e+02 
       3.263796297644e-01       3.668363475732e+02 
       3.378570588849e-01       3.442440452586e+02 
       3.498746518112e-01       3.221891938248e+02 
       3.624891977564e-01       3.011040162611e+02 
       3.757691639132e-01       2.812534459215e+02 
       3.897980940982e-01       2.623131653990e+02 
       4.046793324338e-01       2.439430828999e+02 
       4.205427369342e-01       2.262531730636e+02 
       4.375544654537e-01       2.093466256394e+02 
       4.559316574925e-01       1.929988591777e+02 
       4.759652052560e-01       1.771006029954e+02 
       4.980564601931e-01       1.616686075184e+02 
       5.227791371352e-01       1.465370018879e+02 
       5.509894167761e-01       1.315974303174e+02 
       5.840344408573e-01       1.166874498129e+02 
       6.241769402796e-01       1.015854209808e+02 
       6.755314974823e-01       8.598521336036e+01 
       7.462672468089e-01       6.950755292051e+01 
       8.535202200441e-01       5.193569039528e+01 
       1.027479795797e+00       3.444372098249e+01 
       1.284720878362e+00       2.076438886098e+01 
       1.617027915613e+00       1.218762182514e+01 
       2.035714764477e+00       7.073824099048e+00 
       2.562813044403e+00       4.066365286873e+00 
       3.226390467275e+00       2.317346671307e+00 
       4.061784947624e+00       1.310304422049e+00 
       5.113484287806e+00       7.356472437569e-01 
       6.437495312730e+00       4.103593136880e-01 
       8.104326437501e+00       2.275640384478e-01 
       1.020274249765e+01       1.255177972943e-01 
