# Matter power spectrum P(k) at redshift z=0.5
# for k=2.1029e-07 to 10.5517 h/Mpc,
# number of wavenumbers equal to 139
#    1:k (h/Mpc)              2:P (Mpc/h)^3        
       2.102897869036e-07       7.849147005014e-01 
       2.647391565738e-07       9.769952733581e-01 
       3.332868517077e-07       1.216080885165e+00 
       4.195832870317e-07       1.513674383716e+00 
       5.282240624083e-07       1.884093537962e+00 
       6.649946952869e-07       2.345159891793e+00 
       8.371787206050e-07       2.919056189308e+00 
       1.053945565583e-06       3.633393624678e+00 
       1.326838855160e-06       4.522540261351e+00 
       1.670391152117e-06       5.629274532261e+00 
       2.102897869036e-06       7.006843364067e+00 
       2.647391565738e-06       8.721523940660e+00 
       3.332868517077e-06       1.085581233050e+01 
       4.195832870317e-06       1.351239234801e+01 
       5.282240624083e-06       1.681907551132e+01 
       6.649946952869e-06       2.093494960355e+01 
       8.371787206050e-06       2.605803132205e+01 
       1.053945565583e-05       3.243479055178e+01 
       1.326838855160e-05       4.037200321087e+01 
       1.670391152117e-05       5.025150039301e+01 
       2.102897869036e-05       6.254851845085e+01 
       2.647391565738e-05       7.785452300830e+01 
       3.332868517077e-05       9.690558566660e+01 
       4.195832870317e-05       1.206176404816e+02 
       5.282240624083e-05       1.501302413876e+02 
       6.649946952869e-05       1.868607783478e+02 
       8.371787206050e-05       2.325714716086e+02 
       1.053945565583e-04       2.894518031702e+02 
       1.326838855160e-04       3.602192569349e+02 
       1.670391152117e-04       4.482411121335e+02 
       2.102897869036e-04       5.576791744545e+02 
       2.647391565738e-04       6.936570767958e+02 
       3.332868517077e-04       8.624452063122e+02 
       4.195832870317e-04       1.071650550701e+03 
       5.282240624083e-04       1.330388101666e+03 
       6.649946952869e-04       1.649399878865e+03 
       8.371787206050e-04       2.041079584108e+03 
       1.053945565583e-03       2.519336107468e+03 
       1.326838855160e-03       3.099126526404e+03 
       1.670391152117e-03       3.795348017634e+03 
       2.102897869036e-03       4.620896765090e+03 
       2.647391565738e-03       5.583745758854e+03 
       3.332868517077e-03       6.682820494688e+03 
       4.195832870317e-03       7.902904508118e+03 
       5.282240624083e-03       9.208377326714e+03 
       6.649946952869e-03       1.053664022425e+04 
       8.371787206050e-03       1.179236272993e+04 
       1.053945565583e-02       1.284334176468e+04 
       1.326838855160e-02       1.352140776217e+04 
       1.670391152116e-02       1.363597104838e+04 
       2.102897863690e-02       1.301738187007e+04 
       2.647386126512e-02       1.161358062089e+04 
       3.331915015273e-02       9.634042857468e+03 
       4.156730720394e-02       7.670628181806e+03 
       4.897748730235e-02       6.498537297030e+03 
       5.429093573526e-02       5.939321796477e+03 
       5.859748766593e-02       5.595816922421e+03 
       6.240766796168e-02       5.335960535402e+03 
       6.594266260587e-02       5.108393442275e+03 
       6.931685564759e-02       4.888939515342e+03 
       7.259770544785e-02       4.665664017976e+03 
       7.582897649831e-02       4.433547847006e+03 
       7.904121168790e-02       4.192108088705e+03 
       8.225701513836e-02       3.944025678873e+03 
       8.549395482343e-02       3.694115256382e+03 
       8.876626720275e-02       3.448406253636e+03 
       9.208591296464e-02       3.213277758759e+03 
       9.546325976492e-02       2.994667925751e+03 
       9.890753972958e-02       2.797403194956e+03 
       1.024271651731e-01       2.624689192440e+03 
       1.060299518134e-01       2.477782164367e+03 
       1.097232797198e-01       2.355838875164e+03 
       1.135142111790e-01       2.255936589445e+03 
       1.174095780179e-01       2.173269895353e+03 
       1.214160468161e-01       2.101561389782e+03 
       1.255401678291e-01       2.033737388709e+03 
       1.297884117584e-01       1.962888246210e+03 
       1.341671973966e-01       1.883431522843e+03 
       1.386829124379e-01       1.792253492888e+03 
       1.433419292585e-01       1.689488209297e+03 
       1.481506171426e-01       1.578599207661e+03 
       1.531153522164e-01       1.465605841494e+03 
       1.582425262130e-01       1.357596113464e+03 
       1.635385551012e-01       1.260941607156e+03 
       1.690098885555e-01       1.179724572335e+03 
       1.746630212105e-01       1.114769780243e+03 
       1.805045066185e-01       1.063469328455e+03 
       1.865409748188e-01       1.020453721153e+03 
       1.927791544118e-01       9.790871878566e+02 
       1.992259000307e-01       9.335653763415e+02 
       2.058882261026e-01       8.809833147152e+02 
       2.127733478031e-01       8.224130632478e+02 
       2.198887301399e-01       7.622746442621e+02 
       2.272421461555e-01       7.061742283804e+02 
       2.348417453354e-01       6.582928741941e+02 
       2.426961334515e-01       6.196080736301e+02 
       2.508144652873e-01       5.877022596025e+02 
       2.592065519914e-01       5.581955952795e+02 
       2.678829852265e-01       5.271763335601e+02 
       2.768552808425e-01       4.933517086994e+02 
       2.861360455557e-01       4.585031098201e+02 
       2.957391711141e-01       4.258681975598e+02 
       3.056800617463e-01       3.976803444134e+02 
       3.159759024374e-01       3.737097811157e+02 
       3.266459778978e-01       3.517778434619e+02 
       3.377120552050e-01       3.297211438575e+02 
       3.491988473138e-01       3.071316009129e+02 
       3.611345804050e-01       2.853169730508e+02 
       3.735516960541e-01       2.656443577278e+02 
       3.864877304803e-01       2.481021037306e+02 
       3.999864292586e-01       2.315596786293e+02 
       4.140991793230e-01       2.152270528029e+02 
       4.288868748039e-01       1.994345186757e+02 
       4.444223856890e-01       1.848288440845e+02 
       4.607938792673e-01       1.713237745737e+02 
       4.781093723796e-01       1.583676049980e+02 
       4.965031005043e-01       1.458658126177e+02 
       5.161446377571e-01       1.340859055285e+02 
       5.372523039905e-01       1.229438876364e+02 
       5.601134766417e-01       1.122034411662e+02 
       5.851164518359e-01       1.019082587252e+02 
       6.128024860181e-01       9.201403685118e+01 
       6.439549341863e-01       8.238880315407e+01 
       6.797607188117e-01       7.299092016007e+01 
       7.221227234580e-01       6.369148712200e+01 
       7.743116364393e-01       5.436415026068e+01 
       8.424375772970e-01       4.482931522305e+01 
       9.389344169482e-01       3.489932731104e+01 
       1.089588997429e+00       2.465053931853e+01 
       1.332114285822e+00       1.530696817639e+01 
       1.672418025146e+00       8.846864564440e+00 
       2.105338911099e+00       5.036079883642e+00 
       2.650464118149e+00       2.843918925440e+00 
       3.336736630996e+00       1.594539244008e+00 
       4.200702537225e+00       8.882380496725e-01 
       5.288371171501e+00       4.918671937693e-01 
       6.657664854803e+00       2.709002850565e-01 
       8.381503468920e+00       1.484591489401e-01 
       1.055168770606e+01       8.098585611750e-02 
