# Matter power spectrum P(k) at redshift z=0.5
# for k=2.08534e-07 to 10.4645 h/Mpc,
# number of wavenumbers equal to 139
#    1:k (h/Mpc)              2:P (Mpc/h)^3        
       2.085343160713e-07       7.216266002710e-01 
       2.625291497333e-07       9.001451238457e-01 
       3.305046179359e-07       1.122826186378e+00 
       4.160806622348e-07       1.400594871346e+00 
       5.238145190436e-07       1.747078946992e+00 
       6.594434090907e-07       2.179277465418e+00 
       8.301900653445e-07       2.718394761243e+00 
       1.045147369881e-06       3.390880766799e+00 
       1.315762583013e-06       4.229728681018e+00 
       1.656446951643e-06       5.276093656107e+00 
       2.085343160713e-06       6.581311909681e+00 
       2.625291497333e-06       8.209419312962e+00 
       3.305046179359e-06       1.024029299689e+01 
       4.160806622348e-06       1.277357006495e+01 
       5.238145190436e-06       1.593353557640e+01 
       6.594434090907e-06       1.987521943864e+01 
       8.301900653445e-06       2.479200097795e+01 
       1.045147369881e-05       3.092509358561e+01 
       1.315762583013e-05       3.857537339330e+01 
       1.656446951643e-05       4.811812959627e+01 
       2.085343160713e-05       6.002145473257e+01 
       2.625291497333e-05       7.486916654317e+01 
       3.305046179359e-05       9.338936506607e+01 
       4.160806622348e-05       1.164899846391e+02 
       5.238145190436e-05       1.453030035220e+02 
       6.594434090907e-05       1.812393195799e+02 
       8.301900653445e-05       2.260566691326e+02 
       1.045147369881e-04       2.819433046671e+02 
       1.315762583013e-04       3.516203385723e+02 
       1.656446951643e-04       4.384654686417e+02 
       2.085343160713e-04       5.466597896959e+02 
       2.625291497333e-04       6.813568349397e+02 
       3.305046179359e-04       8.488678569027e+02 
       4.160806622348e-04       1.056848722362e+03 
       5.238145190436e-04       1.314462089716e+03 
       6.594434090907e-04       1.632477302552e+03 
       8.301900653445e-04       2.023262762148e+03 
       1.045147369881e-03       2.500600225328e+03 
       1.315762583013e-03       3.079139654665e+03 
       1.656446951643e-03       3.773164538494e+03 
       2.085343160713e-03       4.594491789096e+03 
       2.625291497333e-03       5.549399171514e+03 
       3.305046179359e-03       6.634394641242e+03 
       4.160806622348e-03       7.831176581298e+03 
       5.238145190436e-03       9.100781788855e+03 
       6.594434090907e-03       1.035735094479e+04 
       8.301900653445e-03       1.153857996245e+04 
       1.045147369881e-02       1.250233036580e+04 
       1.315762583013e-02       1.309294455792e+04 
       1.656446951643e-02       1.314201051214e+04 
       2.085343157629e-02       1.250869200555e+04 
       2.625287901269e-02       1.116302754438e+04 
       3.304341689461e-02       9.303803914944e+03 
       4.129006940692e-02       7.447856697892e+03 
       4.891971388713e-02       6.292609498734e+03 
       5.437929992494e-02       5.729136047923e+03 
       5.876735091073e-02       5.374985717463e+03 
       6.263246913881e-02       5.101829145536e+03 
       6.620940040805e-02       4.861678944699e+03 
       6.961822702412e-02       4.632959304592e+03 
       7.292922120893e-02       4.405624233428e+03 
       7.618771082533e-02       4.175850343578e+03 
       7.942518686792e-02       3.943644805923e+03 
       8.266486871727e-02       3.711475437825e+03 
       8.592474596306e-02       3.483290164950e+03 
       8.921935742186e-02       3.263705430467e+03 
       9.256088928388e-02       3.057301706804e+03 
       9.595988333978e-02       2.868026619439e+03 
       9.942571049531e-02       2.698725839666e+03 
       1.029668969317e-01       2.550818674309e+03 
       1.065913543513e-01       2.424124174330e+03 
       1.103065457926e-01       2.316834922686e+03 
       1.141196069439e-01       2.225640960120e+03 
       1.180374359608e-01       2.146015443862e+03 
       1.220667605109e-01       2.072684169651e+03 
       1.262141880612e-01       2.000285810610e+03 
       1.304862436715e-01       1.924178640084e+03 
       1.348893984075e-01       1.841267441749e+03 
       1.394300907263e-01       1.750645776280e+03 
       1.441147426780e-01       1.653826619189e+03 
       1.489497724311e-01       1.554411051249e+03 
       1.539416044056e-01       1.457213769161e+03 
       1.590966781520e-01       1.367057882095e+03 
       1.644214570245e-01       1.287571331507e+03 
       1.699224376333e-01       1.220306096973e+03 
       1.756061610313e-01       1.164388631475e+03 
       1.814792265612e-01       1.116782581638e+03 
       1.875483092776e-01       1.073146764291e+03 
       1.938201818478e-01       1.029149792562e+03 
       2.003017418291e-01       9.818963206327e+02 
       2.070000452209e-01       9.309129835852e+02 
       2.139223472024e-01       8.781751230325e+02 
       2.210761509945e-01       8.270681882709e+02 
       2.284692658401e-01       7.807615673281e+02 
       2.361098751869e-01       7.407953728683e+02 
       2.440066163036e-01       7.065297669174e+02 
       2.521686727650e-01       6.756624192499e+02 
       2.606058815462e-01       6.455434236635e+02 
       2.693288568720e-01       6.146100585883e+02 
       2.783491335286e-01       5.830966450719e+02 
       2.876793330865e-01       5.525550836729e+02 
       2.973333574685e-01       5.245626502626e+02 
       3.073266156028e-01       4.995944574432e+02 
       3.176762906212e-01       4.768491659505e+02 
       3.284016573614e-01       4.550500738556e+02 
       3.395244630036e-01       4.334979664810e+02 
       3.510693878300e-01       4.124661578005e+02 
       3.630646087879e-01       3.926556425605e+02 
       3.755424964251e-01       3.743594992534e+02 
       3.885404868599e-01       3.572165782467e+02 
       4.021021862883e-01       3.407096741643e+02 
       4.162787885411e-01       3.247204503242e+02 
       4.311309202204e-01       3.094720446886e+02 
       4.467310792759e-01       2.950579388119e+02 
       4.631669119910e-01       2.812833430230e+02 
       4.805456982624e-01       2.679692954439e+02 
       4.990006175427e-01       2.551327844357e+02 
       5.186997059081e-01       2.427812069024e+02 
       5.398589981518e-01       2.307969411698e+02 
       5.627623938789e-01       2.190948023869e+02 
       5.877927390984e-01       2.076300803511e+02 
       6.154824417572e-01       1.962966955298e+02 
       6.465998602936e-01       1.849796615120e+02 
       6.823051381205e-01       1.735347227870e+02 
       7.244502240660e-01       1.617530837240e+02 
       7.762014717447e-01       1.493304836939e+02 
       8.434380115338e-01       1.357889563611e+02 
       9.380614450040e-01       1.203744889037e+02 
       1.084871151628e+00       1.021491523252e+02 
       1.322018226259e+00       8.149956047071e+01 
       1.658633893979e+00       6.227324773454e+01 
       2.087944691614e+00       4.656819855357e+01 
       2.628565801085e+00       3.401484395448e+01 
       3.309168282864e+00       2.416522916447e+01 
       4.165996043200e+00       1.665272203165e+01 
       5.244678284219e+00       1.112749945287e+01 
       6.602658768688e+00       7.225703235585e+00 
       8.312254909307e+00       4.576836406677e+00 
       1.046450893464e+01       2.839713791365e+00 
