# Matter power spectrum P(k) at redshift z=0.5
# for k=2.25483e-07 to 11.3154 h/Mpc,
# number of wavenumbers equal to 139
#    1:k (h/Mpc)              2:P (Mpc/h)^3        
       2.254826822289e-07       5.257810336814e-01 
       2.838658785774e-07       6.558505932490e-01 
       3.573659680824e-07       8.180972173154e-01 
       4.498970985294e-07       1.020480981032e+00 
       5.663868900311e-07       1.272931150506e+00 
       7.130388487672e-07       1.587833328352e+00 
       8.976627263095e-07       1.980637110136e+00 
       1.130090417371e-06       2.470614065027e+00 
       1.422699544054e-06       3.081803227400e+00 
       1.791072609358e-06       3.844190485671e+00 
       2.254826822289e-06       4.795179730509e+00 
       2.838658785774e-06       5.981427932030e+00 
       3.573659680824e-06       7.461134175670e+00 
       4.498970985294e-06       9.306894941381e+00 
       5.663868900311e-06       1.160926568391e+01 
       7.130388487672e-06       1.448120339491e+01 
       8.976627263095e-06       1.806360799232e+01 
       1.130090417371e-05       2.253223418714e+01 
       1.422699544054e-05       2.810631249466e+01 
       1.791072609358e-05       3.505930149086e+01 
       2.254826822289e-05       4.373229711992e+01 
       2.838658785774e-05       5.455075357138e+01 
       3.573659680824e-05       6.804532940065e+01 
       4.498970985294e-05       8.487786848283e+01 
       5.663868900311e-05       1.058737645034e+02 
       7.130388487672e-05       1.320622456963e+02 
       8.976627263095e-05       1.647264557456e+02 
       1.130090417371e-04       2.054655909198e+02 
       1.422699544054e-04       2.562717581447e+02 
       1.791072609358e-04       3.196245828649e+02 
       2.254826822289e-04       3.986067930668e+02 
       2.838658785774e-04       4.970438060967e+02 
       3.573659680824e-04       6.196693845162e+02 
       4.498970985294e-04       7.723172630162e+02 
       5.663868900311e-04       9.621350149281e+02 
       7.130388487672e-04       1.197811610650e+03 
       8.976627263095e-04       1.489803950818e+03 
       1.130090417371e-03       1.850532901833e+03 
       1.422699544054e-03       2.294473897069e+03 
       1.791072609358e-03       2.837993367369e+03 
       2.254826822289e-03       3.498739501444e+03 
       2.838658785774e-03       4.294495316837e+03 
       3.573659680824e-03       5.240917130139e+03 
       4.498970985294e-03       6.324895096556e+03 
       5.663868900311e-03       7.579918350132e+03 
       7.130388487672e-03       8.969248220135e+03 
       8.976627263095e-03       1.044146143109e+04 
       1.130090417371e-02       1.190220455175e+04 
       1.422699544054e-02       1.320163910235e+04 
       1.791072609279e-02       1.413150024973e+04 
       2.254826604194e-02       1.445358267616e+04 
       2.838571860321e-02       1.399372347012e+04 
       3.566562420514e-02       1.282128062369e+04 
       4.355674498105e-02       1.151525536849e+04 
       4.947149915781e-02       1.072803920659e+04 
       5.396107632555e-02       1.025066782170e+04 
       5.779225329440e-02       9.904674273950e+03 
       6.127607063918e-02       9.619451248065e+03 
       6.456061042461e-02       9.360497650617e+03 
       6.772819354324e-02       9.108214957425e+03 
       7.082995592577e-02       8.850845269141e+03 
       7.390040059969e-02       8.581721715244e+03 
       7.696437112689e-02       8.298045282356e+03 
       8.004073561368e-02       8.000218130369e+03 
       8.314448457683e-02       7.691329871926e+03 
       8.628799847700e-02       7.376615703080e+03 
       8.948185103079e-02       7.062813264960e+03 
       9.273533861861e-02       6.757411722035e+03 
       9.605684062711e-02       6.467830887830e+03 
       9.945407134607e-02       6.200593338420e+03 
       1.029342599453e-01       5.960558909085e+03 
       1.065042813378e-01       5.750285375673e+03 
       1.101707526264e-01       5.569570218386e+03 
       1.139401048782e-01       5.415227192742e+03 
       1.178186368722e-01       5.281166476749e+03 
       1.218125554699e-01       5.158869817629e+03 
       1.259280059647e-01       5.038351623393e+03 
       1.301710949058e-01       4.909637830574e+03 
       1.345479073235e-01       4.764637283136e+03 
       1.390645199007e-01       4.599051489791e+03 
       1.437270113862e-01       4.413758959333e+03 
       1.485414713784e-01       4.215082224198e+03 
       1.535140085015e-01       4.013603991841e+03 
       1.586507589319e-01       3.821690599574e+03 
       1.639578961856e-01       3.650364899437e+03 
       1.694416430568e-01       3.506386343319e+03 
       1.751082865759e-01       3.390288694955e+03 
       1.809641968471e-01       3.295889201666e+03 
       1.870158506161e-01       3.211620146454e+03 
       1.932698604196e-01       3.123823543382e+03 
       1.997330101698e-01       3.021504855304e+03 
       2.064122980501e-01       2.900895860103e+03 
       2.133149876377e-01       2.767393147692e+03 
       2.204486682374e-01       2.633261270172e+03 
       2.278213255277e-01       2.511888097187e+03 
       2.354414237857e-01       2.411492914283e+03 
       2.433180012061e-01       2.331355036636e+03 
       2.514607801682e-01       2.262302749437e+03 
       2.598802947706e-01       2.191598894360e+03 
       2.685880385758e-01       2.110328596065e+03 
       2.775966363388e-01       2.018933562363e+03 
       2.869200445856e-01       1.926444272360e+03 
       2.965737873615e-01       1.843471506903e+03 
       3.065752353905e-01       1.774345127414e+03 
       3.169439394555e-01       1.714369310209e+03 
       3.277020322721e-01       1.654237719827e+03 
       3.388747178360e-01       1.588315139510e+03 
       3.504908737208e-01       1.519391070292e+03 
       3.625838008798e-01       1.454833555366e+03 
       3.751921683774e-01       1.398257029886e+03 
       3.883612190391e-01       1.346038887743e+03 
       4.021443292455e-01       1.292479108472e+03 
       4.166050568256e-01       1.237091908769e+03 
       4.318198732102e-01       1.184163626495e+03 
       4.478818731907e-01       1.135506598944e+03 
       4.649059113817e-01       1.088022882745e+03 
       4.830358711965e-01       1.039701149685e+03 
       5.024552088165e-01       9.926148709776e+02 
       5.234026841462e-01       9.474484679818e+02 
       5.461966021130e-01       9.021368017362e+02 
       5.712735964306e-01       8.568687913976e+02 
       5.992534619638e-01       8.119341850430e+02 
       6.310532708494e-01       7.660478094183e+02 
       6.681008384422e-01       7.190286853648e+02 
       7.127634151588e-01       6.695644694902e+02 
       7.692792768863e-01       6.161558558490e+02 
       8.459312453537e-01       5.561138841340e+02 
       9.600488065974e-01       4.853477065418e+02 
       1.144378606561e+00       4.004947543377e+02 
       1.425162426090e+00       3.098062202396e+02 
       1.793372994206e+00       2.284957685373e+02 
       2.257714084290e+00       1.608975088831e+02 
       2.842293616335e+00       1.084465617961e+02 
       3.578235661380e+00       7.053219693338e+01 
       4.504731803499e+00       4.464779608144e+01 
       5.671121340742e+00       2.770875766650e+01 
       7.139518769229e+00       1.695482606687e+01 
       8.988121606564e+00       1.027158505077e+01 
       1.131537469480e+01       6.179321568998e+00 
