# Matter power spectrum P(k) at redshift z=0.5
# for k=2.08994e-07 to 10.4871 h/Mpc,
# number of wavenumbers equal to 139
#    1:k (h/Mpc)              2:P (Mpc/h)^3        
       2.089937256641e-07       7.858458886348e-01 
       2.631075121441e-07       9.802512057691e-01 
       3.312327330722e-07       1.222749193069e+00 
       4.169973048826e-07       1.525237183879e+00 
       5.249685037664e-07       1.902555715381e+00 
       6.608961897831e-07       2.373216628142e+00 
       8.320190078758e-07       2.960311285496e+00 
       1.047449872111e-06       3.692643470488e+00 
       1.318661261581e-06       4.606142541384e+00 
       1.660096171752e-06       5.745626176183e+00 
       2.089937256641e-06       7.166999185214e+00 
       2.631075121441e-06       8.939996262664e+00 
       3.312327330722e-06       1.115160322863e+01 
       4.169973048826e-06       1.391032458848e+01 
       5.249685037664e-06       1.735150672977e+01 
       6.608961897831e-06       2.164397782800e+01 
       8.320190078758e-06       2.699833002747e+01 
       1.047449872111e-05       3.367724984778e+01 
       1.318661261581e-05       4.200840289135e+01 
       1.660096171752e-05       5.240050348140e+01 
       2.089937256641e-05       6.536335467548e+01 
       2.631075121441e-05       8.153283598241e+01 
       3.312327330722e-05       1.017020531398e+02 
       4.169973048826e-05       1.268601553492e+02 
       5.249685037664e-05       1.582406793279e+02 
       6.608961897831e-05       1.973817031723e+02 
       8.320190078758e-05       2.462005868510e+02 
       1.047449872111e-04       3.070866242743e+02 
       1.318661261581e-04       3.830154869314e+02 
       1.660096171752e-04       4.776897881986e+02 
       2.089937256641e-04       5.957102158249e+02 
       2.631075121441e-04       7.427810644309e+02 
       3.312327330722e-04       9.259520291001e+02 
       4.169973048826e-04       1.153894071734e+03 
       5.249685037664e-04       1.437200706287e+03 
       6.608961897831e-04       1.788697902991e+03 
       8.320190078758e-04       2.223735932822e+03 
       1.047449872111e-03       2.760412256916e+03 
       1.318661261581e-03       3.419598187635e+03 
       1.660096171752e-03       4.224519999968e+03 
       2.089937256641e-03       5.199621875844e+03 
       2.631075121441e-03       6.368499790827e+03 
       3.312327330722e-03       7.750176022865e+03 
       4.169973048826e-03       9.353535957244e+03 
       5.249685037664e-03       1.116878528380e+04 
       6.608961897831e-03       1.315557878635e+04 
       8.320190078758e-03       1.522752100060e+04 
       1.047449872111e-02       1.723329744325e+04 
       1.318661261581e-02       1.893911010410e+04 
       1.660096171712e-02       2.002695293709e+04 
       2.089937126991e-02       2.014377185944e+04 
       2.631017058809e-02       1.905551146139e+04 
       3.307112060973e-02       1.692903551043e+04 
       4.054266510037e-02       1.470727158797e+04 
       4.624019706840e-02       1.342384948853e+04 
       5.052449030715e-02       1.268943424563e+04 
       5.415930986097e-02       1.217858109199e+04 
       5.745420363439e-02       1.176840290328e+04 
       6.055477805661e-02       1.140099160944e+04 
       6.354127294853e-02       1.104438547241e+04 
       6.646321656538e-02       1.067993436837e+04 
       6.935386540116e-02       1.029742496070e+04 
       7.223707219020e-02       9.892885396837e+03 
       7.513089364983e-02       9.467353256402e+03 
       7.804963583223e-02       9.025927111567e+03 
       8.100508556404e-02       8.576811104936e+03 
       8.400728864176e-02       8.130248316800e+03 
       8.706506147425e-02       7.697342728299e+03 
       9.018633865184e-02       7.288833648910e+03 
       9.337841552240e-02       6.913916361503e+03 
       9.664812128145e-02       6.579205019065e+03 
       1.000019446978e-01       6.287918643327e+03 
       1.034461267011e-01       6.039350974538e+03 
       1.069867292493e-01       5.828681954568e+03 
       1.106296868814e-01       5.647208393592e+03 
       1.143808454366e-01       5.483096887039e+03 
       1.182459911605e-01       5.322758028182e+03 
       1.222308725935e-01       5.152847671588e+03 
       1.263412170820e-01       4.962696769037e+03 
       1.305827433871e-01       4.746693829588e+03 
       1.349611716223e-01       4.505926369128e+03 
       1.394822315905e-01       4.248394210355e+03 
       1.441516704881e-01       3.987441932358e+03 
       1.489752608796e-01       3.738637544414e+03 
       1.539588098041e-01       3.515889604880e+03 
       1.591081698497e-01       3.327854002197e+03 
       1.644292530166e-01       3.175557817509e+03 
       1.699280481774e-01       3.051859993779e+03 
       1.756106429355e-01       2.943107428372e+03 
       1.814832506835e-01       2.833045515156e+03 
       1.875522436631e-01       2.708311331471e+03 
       1.938241928504e-01       2.563664162116e+03 
       2.003059155239e-01       2.404343154140e+03 
       2.070045314365e-01       2.243785371407e+03 
       2.139275286196e-01       2.097388482956e+03 
       2.210828399976e-01       1.975340631692e+03 
       2.284789322216e-01       1.877995364770e+03 
       2.361249084429e-01       1.795951045252e+03 
       2.440306271735e-01       1.715101034980e+03 
       2.522068399628e-01       1.624651280961e+03 
       2.606653513772e-01       1.523580310200e+03 
       2.694192057899e-01       1.420724076255e+03 
       2.784829068212e-01       1.327883099197e+03 
       2.878726770497e-01       1.251045812841e+03 
       2.976067679851e-01       1.186357522906e+03 
       3.077058334823e-01       1.123875059417e+03 
       3.181933841221e-01       1.056343963885e+03 
       3.290963460625e-01       9.853844791278e+02 
       3.404457562127e-01       9.187719154642e+02 
       3.522776374185e-01       8.615491127046e+02 
       3.646341143821e-01       8.107922938500e+02 
       3.775648560167e-01       7.599053341616e+02 
       3.911289672300e-01       7.071276480622e+02 
       4.053975100104e-01       6.568981726016e+02 
       4.204569224102e-01       6.122142439685e+02 
       4.364137459578e-01       5.700884940957e+02 
       4.534013055149e-01       5.274451230407e+02 
       4.715893818780e-01       4.863367261788e+02 
       4.911986140361e-01       4.483789008006e+02 
       5.125226420662e-01       4.111690766079e+02 
       5.359634391097e-01       3.745591779834e+02 
       5.620901887593e-01       3.396076932162e+02 
       5.917425370923e-01       3.048363903946e+02 
       6.262228977654e-01       2.705942418695e+02 
       6.676807156270e-01       2.360472529915e+02 
       7.199430896917e-01       2.007785019213e+02 
       7.904457361883e-01       1.638975579915e+02 
       8.947120049244e-01       1.247625259871e+02 
       1.062657237796e+00       8.486433589126e+01 
       1.321013792411e+00       5.160038801657e+01 
       1.662095627089e+00       3.018768479257e+01 
       2.092442739034e+00       1.745770650240e+01 
       2.634229311250e+00       1.000312209356e+01 
       3.316298220419e+00       5.684212322256e+00 
       4.174972102773e+00       3.205771536566e+00 
       5.255978473713e+00       1.795656206805e+00 
       6.616884864400e+00       9.995549978762e-01 
       8.330164502709e+00       5.532426058333e-01 
       1.048705577689e+01       3.046167570297e-01 
