# Matter power spectrum P(k) at redshift z=2.5
# for k=2.04356e-07 to 10.2561 h/Mpc,
# number of wavenumbers equal to 139
#    1:k (h/Mpc)              2:P (Mpc/h)^3        
       2.043563619907e-07       1.631595283818e-01 
       2.572694171719e-07       2.035225057396e-01 
       3.238830069552e-07       2.538706181586e-01 
       4.077445479042e-07       3.166740235122e-01 
       5.133199728772e-07       3.950139557242e-01 
       6.462315582365e-07       4.927338950956e-01 
       8.135573305673e-07       6.146281353136e-01 
       1.024207997403e-06       7.666769988685e-01 
       1.289401474893e-06       9.563402399319e-01 
       1.623260282748e-06       1.192923031490e+00 
       2.043563619907e-06       1.488032488527e+00 
       2.572694171719e-06       1.856147125870e+00 
       3.238830069552e-06       2.315327188230e+00 
       4.077445479042e-06       2.888100695757e+00 
       5.133199728772e-06       3.602568663121e+00 
       6.462315582365e-06       4.493783707308e+00 
       8.135573305673e-06       5.605469633131e+00 
       1.024207997403e-05       6.992166300449e+00 
       1.289401474893e-05       8.721904845241e+00 
       1.623260282748e-05       1.087954425203e+01 
       2.043563619907e-05       1.357093238329e+01 
       2.572694171719e-05       1.692809454445e+01 
       3.238830069552e-05       2.111570195429e+01 
       4.077445479042e-05       2.633913318234e+01 
       5.133199728772e-05       3.285451560845e+01 
       6.462315582365e-05       4.098122281010e+01 
       8.135573305673e-05       5.111740812247e+01 
       1.024207997403e-04       6.375927164550e+01 
       1.289401474893e-04       7.952487897267e+01 
       1.623260282748e-04       9.918345225215e+01 
       2.043563619907e-04       1.236910903487e+02 
       2.572694171719e-04       1.542337513409e+02 
       3.238830069552e-04       1.922778799203e+02 
       4.077445479042e-04       2.396280202376e+02 
       5.133199728772e-04       2.984887905108e+02 
       6.462315582365e-04       3.715255292941e+02 
       8.135573305673e-04       4.619142455548e+02 
       1.024207997403e-03       5.733687023174e+02 
       1.289401474893e-03       7.101299311374e+02 
       1.623260282748e-03       8.768874665138e+02 
       2.043563619907e-03       1.078549022077e+03 
       2.572694171719e-03       1.319743600946e+03 
       3.238830069552e-03       1.604043981392e+03 
       4.077445479042e-03       1.932811434023e+03 
       5.133199728772e-03       2.303478416179e+03 
       6.462315582365e-03       2.707274854311e+03 
       8.135573305673e-03       3.126403423862e+03 
       1.024207997403e-02       3.530874914400e+03 
       1.289401474893e-02       3.876005153274e+03 
       1.623260282595e-02       4.103315643936e+03 
       2.043563268377e-02       4.150836443830e+03 
       2.572573829666e-02       3.980991565397e+03 
       3.230158662628e-02       3.628402143079e+03 
       3.923114619154e-02       3.264922096019e+03 
       4.432883214170e-02       3.046357590884e+03 
       4.824676764401e-02       2.905263896173e+03 
       5.161468576964e-02       2.796554693642e+03 
       5.468947956512e-02       2.702513842546e+03 
       5.759538309935e-02       2.614661661211e+03 
       6.040224335384e-02       2.528431822974e+03 
       6.315380534364e-02       2.441345156213e+03 
       6.587977205512e-02       2.352256858760e+03 
       6.860163999887e-02       2.260982562558e+03 
       7.133580491547e-02       2.168065423441e+03 
       7.409534054773e-02       2.074587591984e+03 
       7.689107834210e-02       1.981988645319e+03 
       7.973229429253e-02       1.891878794911e+03 
       8.262716299292e-02       1.805847103412e+03 
       8.558306747942e-02       1.725276358206e+03 
       8.860681628168e-02       1.651174973395e+03 
       9.170479876799e-02       1.584041681799e+03 
       9.488309825061e-02       1.523775639477e+03 
       9.814757542783e-02       1.469646855262e+03 
       1.015039305240e-01       1.420339544385e+03 
       1.049577498394e-01       1.374081585118e+03 
       1.085145407203e-01       1.328866152573e+03 
       1.121797578484e-01       1.282753690625e+03 
       1.159588230141e-01       1.234218536040e+03 
       1.198571400489e-01       1.182472139776e+03 
       1.238801062655e-01       1.127675923923e+03 
       1.280331215420e-01       1.070959866702e+03 
       1.323215960406e-01       1.014205723554e+03 
       1.367509574640e-01       9.596199050287e+02 
       1.413266586953e-01       9.091920058650e+02 
       1.460541866283e-01       8.641775223680e+02 
       1.509390729761e-01       8.247463524287e+02 
       1.559869078301e-01       7.899073057361e+02 
       1.612033567309e-01       7.577656696865e+02 
       1.665941820081e-01       7.260945909534e+02 
       1.721652691425e-01       6.930858258853e+02 
       1.779226589137e-01       6.580196495446e+02 
       1.838725861096e-01       6.215429222816e+02 
       1.900215256184e-01       5.853682039679e+02 
       1.963762467835e-01       5.514833812820e+02 
       2.029438770089e-01       5.212315436829e+02 
       2.097319757590e-01       4.947049650957e+02 
       2.167486203203e-01       4.707572262049e+02 
       2.240025050015e-01       4.476560575407e+02 
       2.315030558784e-01       4.240647505004e+02 
       2.392605637510e-01       3.997862126383e+02 
       2.472863387406e-01       3.757632266932e+02 
       2.555928909498e-01       3.533091878447e+02 
       2.641941429283e-01       3.331266277191e+02 
       2.731056814408e-01       3.148457625622e+02 
       2.823450583736e-01       2.974213001587e+02 
       2.919321537735e-01       2.800488938790e+02 
       3.018896183143e-01       2.627947776507e+02 
       3.122434184237e-01       2.463562995969e+02 
       3.230235156124e-01       2.312309751350e+02 
       3.342647233477e-01       2.172002575292e+02 
       3.460078018525e-01       2.036703137773e+02 
       3.583008762580e-01       1.904026396278e+02 
       3.712013010520e-01       1.776858448539e+02 
       3.847781511745e-01       1.657733932412e+02 
       3.991156099956e-01       1.544778213679e+02 
       4.143176687943e-01       1.435222028392e+02 
       4.305147909644e-01       1.329589262409e+02 
       4.478736012426e-01       1.229014192688e+02 
       4.666113799797e-01       1.132108684645e+02 
       4.870184675144e-01       1.037892297296e+02 
       5.094942376620e-01       9.466933371798e+01 
       5.346074856603e-01       8.575345107958e+01 
       5.632032496357e-01       7.696993609265e+01 
       5.966037999558e-01       6.823595534144e+01 
       6.370149891179e-01       5.942200693883e+01 
       6.884154936738e-01       5.035937225278e+01 
       7.586405280524e-01       4.083389438435e+01 
       8.641147108765e-01       3.070382722807e+01 
       1.034941918225e+00       2.052963080197e+01 
       1.291574727596e+00       1.238945522930e+01 
       1.625487697996e+00       7.251913721805e+00 
       2.046362934723e+00       4.197838234203e+00 
       2.576218292368e+00       2.407320050147e+00 
       3.243266674589e+00       1.368924747374e+00 
       4.083030833866e+00       7.725263928964e-01 
       5.140231273893e+00       4.329556554812e-01 
       6.471167773203e+00       2.411243345878e-01 
       8.146717553668e+00       1.335196317357e-01 
       1.025610975102e+01       7.354717364976e-02 
