# Matter power spectrum P(k) at redshift z=0
# for k=1.78847e-07 to 11.2985 h/Mpc,
# number of wavenumbers equal to 140
#    1:k (h/Mpc)              2:P (Mpc/h)^3        
       1.788466814133e-07       1.867583770085e+00 
       2.251546320463e-07       2.329593204009e+00 
       2.834528878663e-07       2.905896153205e+00 
       3.568460435813e-07       3.624766947172e+00 
       4.492425523627e-07       4.521474516171e+00 
       5.655628652287e-07       5.640012738559e+00 
       7.120014630035e-07       7.035258844995e+00 
       8.963567350097e-07       8.775665772806e+00 
       1.128446271737e-06       1.094662055674e+01 
       1.420629687334e-06       1.365463351538e+01 
       1.788466814133e-06       1.703256374436e+01 
       2.251546320463e-06       2.124613725116e+01 
       2.834528878663e-06       2.650207745681e+01 
       3.568460435813e-06       3.305824681948e+01 
       4.492425523627e-06       4.123629688287e+01 
       5.655628652287e-06       5.143744685224e+01 
       7.120014630035e-06       6.416216377662e+01 
       8.963567350097e-06       8.003470781723e+01 
       1.128446271737e-05       9.983374278504e+01 
       1.420629687334e-05       1.245305056634e+02 
       1.788466814133e-05       1.553363919348e+02 
       2.251546320463e-05       1.937622599150e+02 
       2.834528878663e-05       2.416923016951e+02 
       3.568460435813e-05       3.014759827087e+02 
       4.492425523627e-05       3.760423197963e+02 
       5.655628652287e-05       4.690416307200e+02 
       7.120014630035e-05       5.850207813171e+02 
       8.963567350097e-05       7.296387168444e+02 
       1.128446271737e-04       9.099293462384e+02 
       1.420629687334e-04       1.134617975524e+03 
       1.788466814133e-04       1.414494255288e+03 
       2.251546320463e-04       1.762837129307e+03 
       2.834528878663e-04       2.195873227308e+03 
       3.568460435813e-04       2.733228280607e+03 
       4.492425523627e-04       3.398304610817e+03 
       5.655628652287e-04       4.218494619653e+03 
       7.120014630035e-04       5.225109568040e+03 
       8.963567350097e-04       6.452772080096e+03 
       1.128446271737e-03       7.937701937399e+03 
       1.420629687334e-03       9.714234554607e+03 
       1.788466814133e-03       1.180921003984e+04 
       2.251546320463e-03       1.423350433256e+04 
       2.834528878663e-03       1.697096413248e+04 
       3.568460435813e-03       1.996548579560e+04 
       4.492425523627e-03       2.310517482609e+04 
       5.655628652287e-03       2.620766054064e+04 
       7.120014630035e-03       2.900779193664e+04 
       8.963567350097e-03       3.115046383779e+04 
       1.128446271737e-02       3.219685555087e+04 
       1.420629687333e-02       3.166718128662e+04 
       1.788466811459e-02       2.917174421242e+04 
       2.251543210355e-02       2.469684235261e+04 
       2.833920985851e-02       1.900274245427e+04 
       3.541074932886e-02       1.382568893880e+04 
       4.194927831403e-02       1.104844910312e+04 
       4.662817860898e-02       9.953416456772e+03 
       5.038942511983e-02       9.403886331648e+03 
       5.370274361899e-02       9.046180640360e+03 
       5.676917911692e-02       8.747244201971e+03 
       5.969159775262e-02       8.444133306237e+03 
       6.253020650359e-02       8.105022787256e+03 
       6.532384545435e-02       7.716237569300e+03 
       6.809950081535e-02       7.276777195079e+03 
       7.087707196050e-02       6.795115472632e+03 
       7.367197724781e-02       6.286538915933e+03 
       7.649667816999e-02       5.770474466014e+03 
       7.936162024225e-02       5.267765041156e+03 
       8.227583984240e-02       4.798100618420e+03 
       8.524736995795e-02       4.377877052182e+03 
       8.828351967850e-02       4.018703514520e+03 
       9.139107150342e-02       3.726621769154e+03 
       9.457642343936e-02       3.501925907908e+03 
       9.784569296427e-02       3.339357575239e+03 
       1.012047940002e-01       3.228486435555e+03 
       1.046594943711e-01       3.154276518733e+03 
       1.082154588990e-01       3.098100117835e+03 
       1.118782817936e-01       3.039605444071e+03 
       1.156535110025e-01       2.959678497872e+03 
       1.195466665384e-01       2.844205735926e+03 
       1.235632543650e-01       2.687639041773e+03 
       1.277087771313e-01       2.494926309289e+03 
       1.319887428574e-01       2.280639353864e+03 
       1.364086725465e-01       2.065182167434e+03 
       1.409741076203e-01       1.869290333639e+03 
       1.456906180255e-01       1.708776188919e+03 
       1.505638118267e-01       1.591090013235e+03 
       1.555993470827e-01       1.514131005230e+03 
       1.608029467877e-01       1.466944214249e+03 
       1.661804176547e-01       1.432164851688e+03 
       1.717376735082e-01       1.390603108237e+03 
       1.774807640591e-01       1.327691019881e+03 
       1.834159098405e-01       1.239423907979e+03 
       1.895495441099e-01       1.134101360942e+03 
       1.958883625707e-01       1.028011103733e+03 
       2.024393818424e-01       9.373173167912e+02 
       2.092100077346e-01       8.708390412159e+02 
       2.162081145562e-01       8.269797121830e+02 
       2.234421369520e-01       7.953064951669e+02 
       2.309211761074e-01       7.620512592845e+02 
       2.386551226434e-01       7.177401837892e+02 
       2.466547991585e-01       6.626714314465e+02 
       2.549321262223e-01       6.057227803946e+02 
       2.635003167411e-01       5.571096878741e+02 
       2.723741050970e-01       5.210531520987e+02 
       2.815700194282e-01       4.936481997547e+02 
       2.911067080560e-01       4.668310780019e+02 
       3.010053346287e-01       4.353702221362e+02 
       3.112900614376e-01       4.009645458597e+02 
       3.219886471226e-01       3.693674133577e+02 
       3.331331945043e-01       3.438521604740e+02 
       3.447610978655e-01       3.222435361581e+02 
       3.569162587421e-01       3.002914663447e+02 
       3.696506684700e-01       2.769913718929e+02 
       3.830264997611e-01       2.550044857926e+02 
       3.971189174584e-01       2.360451718974e+02 
       4.120199257795e-01       2.185370787933e+02 
       4.278437430884e-01       2.008289948751e+02 
       4.447344853132e-01       1.838280083314e+02 
       4.628774397473e-01       1.683972387845e+02 
       4.825161077331e-01       1.535506320900e+02 
       5.039788702770e-01       1.390462528995e+02 
       5.277224149513e-01       1.253878594378e+02 
       5.544058605374e-01       1.120763150856e+02 
       5.850244803050e-01       9.912560454697e+01 
       6.211671785355e-01       8.637144112866e+01 
       6.655508631338e-01       7.364513594036e+01 
       7.232207864077e-01       6.069997186104e+01 
       8.043915763217e-01       4.729723428696e+01 
       9.303457126732e-01       3.350716761572e+01 
       1.133791862313e+00       2.084494847783e+01 
       1.422502092646e+00       1.199844655317e+01 
       1.790694808416e+00       6.796787530885e+00 
       2.254350493937e+00       3.821976956756e+00 
       2.838059123319e+00       2.135162092551e+00 
       3.572904750520e+00       1.185714397062e+00 
       4.498020584350e+00       6.548705655713e-01 
       5.662672416412e+00       3.598731189552e-01 
       7.128882203687e+00       1.968479149782e-01 
       8.974730963909e+00       1.072126263651e-01 
       1.129851687448e+01       5.815914788047e-02 
