# Matter power spectrum P(k) at redshift z=2
# for k=2.09212e-07 to 10.4998 h/Mpc,
# number of wavenumbers equal to 139
#    1:k (h/Mpc)              2:P (Mpc/h)^3        
       2.092115103682e-07       2.118546409927e-01 
       2.633816868423e-07       2.642639863755e-01 
       3.315778985670e-07       3.296385395499e-01 
       4.174318424954e-07       4.111856790613e-01 
       5.255155542095e-07       5.129062357923e-01 
       6.615848854874e-07       6.397907798148e-01 
       8.328860243990e-07       7.980644652441e-01 
       1.048541381244e-06       9.954924453027e-01 
       1.320035390166e-06       1.241760840898e+00 
       1.661826097148e-06       1.548951954686e+00 
       2.092115103682e-06       1.932137040161e+00 
       2.633816868423e-06       2.410115708301e+00 
       3.315778985670e-06       3.006338240503e+00 
       4.174318424954e-06       3.750056045232e+00 
       5.255155542095e-06       4.677756676434e+00 
       6.615848854874e-06       5.834953770373e+00 
       8.328860243990e-06       7.278419622289e+00 
       1.048541381244e-05       9.078969737724e+00 
       1.320035390166e-05       1.132493561306e+01 
       1.661826097148e-05       1.412649535036e+01 
       2.092115103682e-05       1.762107313489e+01 
       2.633816868423e-05       2.198006952637e+01 
       3.315778985670e-05       2.741724703092e+01 
       4.174318424954e-05       3.419917096641e+01 
       5.255155542095e-05       4.265819544297e+01 
       6.615848854874e-05       5.320858719622e+01 
       8.328860243990e-05       6.636649131897e+01 
       1.048541381244e-04       8.277454705836e+01 
       1.320035390166e-04       1.032320265685e+02 
       1.661826097148e-04       1.287313240483e+02 
       2.092115103682e-04       1.605013319572e+02 
       2.633816868423e-04       2.000574573203e+02 
       3.315778985670e-04       2.492563447193e+02 
       4.174318424954e-04       3.103502172581e+02 
       5.255155542095e-04       3.860306429107e+02 
       6.615848854874e-04       4.794449530538e+02 
       8.328860243990e-04       5.941635163122e+02 
       1.048541381244e-03       7.340778794196e+02 
       1.320035390166e-03       9.032131942536e+02 
       1.661826097148e-03       1.105399339831e+03 
       2.092115103682e-03       1.343639774013e+03 
       2.633816868423e-03       1.619091077455e+03 
       3.315778985670e-03       1.929847024198e+03 
       4.174318424954e-03       2.269509538594e+03 
       5.255155542095e-03       2.625620776987e+03 
       6.615848854874e-03       2.977225257997e+03 
       8.328860243990e-03       3.298062285172e+03 
       1.048541381244e-02       3.551206129388e+03 
       1.320035390166e-02       3.693955049124e+03 
       1.661826097148e-02       3.681540223671e+03 
       2.092115102498e-02       3.477930320033e+03 
       2.633815113715e-02       3.077666191254e+03 
       3.315360872051e-02       2.536948649069e+03 
       4.152030342810e-02       1.995812477350e+03 
       4.965563278538e-02       1.648806610752e+03 
       5.549008699466e-02       1.485705839909e+03 
       6.010838063552e-02       1.387739502956e+03 
       6.414336476331e-02       1.313937406606e+03 
       6.786043286274e-02       1.249616816039e+03 
       7.139273381446e-02       1.188359742875e+03 
       7.481711691953e-02       1.127242777867e+03 
       7.818264793569e-02       1.065192205620e+03 
       8.152314320632e-02       1.002259289241e+03 
       8.486337425074e-02       9.392096784470e+02 
       8.822242773572e-02       8.772304000606e+02 
       9.161565626907e-02       8.176882147241e+02 
       9.505587552562e-02       7.619217286019e+02 
       9.855413260850e-02       7.110685457564e+02 
       1.021202177367e-01       6.659335776525e+02 
       1.057630155458e-01       6.269018124968e+02 
       1.094907524146e-01       5.938951203547e+02 
       1.133111741953e-01       5.663700524966e+02 
       1.172316760274e-01       5.433552938980e+02 
       1.212593983292e-01       5.235325459176e+02 
       1.254012983954e-01       5.053692216994e+02 
       1.296642040771e-01       4.873080717918e+02 
       1.340548541191e-01       4.680032322556e+02 
       1.385799284862e-01       4.465657865942e+02 
       1.432460711813e-01       4.227554230513e+02 
       1.480599075093e-01       3.970472283076e+02 
       1.530280573779e-01       3.705269009418e+02 
       1.581571459802e-01       3.446232107406e+02 
       1.634538130502e-01       3.207470075740e+02 
       1.689247217790e-01       2.999402303383e+02 
       1.745765684160e-01       2.826279965433e+02 
       1.804160935422e-01       2.685280959631e+02 
       1.864500959734e-01       2.567346155496e+02 
       1.926854502395e-01       2.459700796996e+02 
       1.991291285713e-01       2.349704383569e+02 
       2.057882283225e-01       2.229048395378e+02 
       2.126700057517e-01       2.096641134462e+02 
       2.197819171030e-01       1.958593740698e+02 
       2.271316679476e-01       1.825023520183e+02 
       2.347272718033e-01       1.705195291311e+02 
       2.425771191378e-01       1.603429820095e+02 
       2.506900580009e-01       1.517629565139e+02 
       2.590754877416e-01       1.440920990784e+02 
       2.677434675553e-01       1.365571603305e+02 
       2.767048420238e-01       1.287187551585e+02 
       2.859713863576e-01       1.206699497641e+02 
       2.955559747948e-01       1.128810094280e+02 
       3.054727765954e-01       1.058124709086e+02 
       3.157374853653e-01       9.959077380763e+01 
       3.263675891682e-01       9.397116830401e+01 
       3.373826911682e-01       8.858213970927e+01 
       3.488048936049e-01       8.323220044962e+01 
       3.606592620386e-01       7.801441306680e+01 
       3.729743924513e-01       7.313703197967e+01 
       3.857831116100e-01       6.868070564794e+01 
       3.991233520712e-01       6.453668621390e+01 
       4.130392588526e-01       6.055863956989e+01 
       4.275826074652e-01       5.672033868564e+01 
       4.428146464537e-01       5.309094899986e+01 
       4.588085279283e-01       4.969728790757e+01 
       4.756525669572e-01       4.648391833257e+01 
       4.934546925001e-01       4.340397988876e+01 
       5.123486493806e-01       4.046749595011e+01 
       5.325028381857e-01       3.768000253351e+01 
       5.541332426275e-01       3.501211469828e+01 
       5.775228969724e-01       3.244597580939e+01 
       6.030522102367e-01       2.997661646931e+01 
       6.312480953337e-01       2.758355695264e+01 
       6.628673158141e-01       2.524789824864e+01 
       6.990457658334e-01       2.294851184928e+01 
       7.415834822481e-01       2.065629835590e+01 
       7.935305513186e-01       1.833344302770e+01 
       8.604911029647e-01       1.592703598342e+01 
       9.537029217438e-01       1.336676868101e+01 
       1.096699898827e+00       1.060244661731e+01 
       1.328498807393e+00       7.812064586407e+00 
       1.664318767914e+00       5.554292020045e+00 
       2.094991505059e+00       3.987791550131e+00 
       2.637436292155e+00       2.896752350874e+00 
       3.320335568310e+00       2.114942325839e+00 
       4.180054822629e+00       1.540532127090e+00 
       5.262377238901e+00       1.111344095753e+00 
       6.624940432499e+00       7.888180660035e-01 
       8.340305862096e+00       5.480054290621e-01 
       1.049982299193e+01       3.713638934896e-01 
