# Matter power spectrum P(k) at redshift z=0.5
# for k=2.09838e-07 to 10.5275 h/Mpc,
# number of wavenumbers equal to 139
#    1:k (h/Mpc)              2:P (Mpc/h)^3        
       2.098377347701e-07       6.737658891848e-01 
       2.641700566554e-07       8.408509512858e-01 
       3.325703973585e-07       1.049370906662e+00 
       4.186813244451e-07       1.309601062452e+00 
       5.270885587876e-07       1.634364865920e+00 
       6.635651809237e-07       2.039665809578e+00 
       8.353790686466e-07       2.545476039078e+00 
       1.051679938000e-06       3.176720525419e+00 
       1.323986599023e-06       3.964505296446e+00 
       1.666800374384e-06       4.947650250730e+00 
       2.098377347701e-06       6.174602081254e+00 
       2.641700566554e-06       7.705821565111e+00 
       3.325703973585e-06       9.616762842648e+00 
       4.186813244451e-06       1.200159146347e+01 
       5.270885587876e-06       1.497782435041e+01 
       6.635651809237e-06       1.869212020129e+01 
       8.353790686466e-06       2.332750540848e+01 
       1.051679938000e-05       2.911239107854e+01 
       1.323986599023e-05       3.633182450192e+01 
       1.666800374384e-05       4.534152756086e+01 
       2.098377347701e-05       5.658541003023e+01 
       2.641700566554e-05       7.061741315080e+01 
       3.325703973585e-05       8.812874487904e+01 
       4.186813244451e-05       1.099818192356e+02 
       5.270885587876e-05       1.372525136764e+02 
       6.635651809237e-05       1.712827116375e+02 
       8.353790686466e-05       2.137454928241e+02 
       1.051679938000e-04       2.667257403028e+02 
       1.323986599023e-04       3.328192732153e+02 
       1.666800374384e-04       4.152537256790e+02 
       2.098377347701e-04       5.180339664128e+02 
       2.641700566554e-04       6.461133585697e+02 
       3.325703973585e-04       8.055888167797e+02 
       4.186813244451e-04       1.003911622394e+03 
       5.270885587876e-04       1.250097266344e+03 
       6.635651809237e-04       1.554908040133e+03 
       8.353790686466e-04       1.930972980779e+03 
       1.051679938000e-03       2.392785590131e+03 
       1.323986599023e-03       2.956431739870e+03 
       1.666800374384e-03       3.638773024231e+03 
       2.098377347701e-03       4.455869802359e+03 
       2.641700566554e-03       5.420425044329e+03 
       3.325703973585e-03       6.537928885095e+03 
       4.186813244451e-03       7.801528583258e+03 
       5.270885587876e-03       9.164066695854e+03 
       6.635651809237e-03       1.060456567753e+04 
       8.353790686466e-03       1.201843309699e+04 
       1.051679938000e-02       1.327097990595e+04 
       1.323986599023e-02       1.417946041890e+04 
       1.666800374381e-02       1.452362202422e+04 
       2.098377328361e-02       1.409225739078e+04 
       2.641686381856e-02       1.279549675178e+04 
       3.323799144030e-02       1.083897418536e+04 
       4.125131149404e-02       8.893279131110e+03 
       4.795906880920e-02       7.774083988817e+03 
       5.283258668590e-02       7.208008832756e+03 
       5.685922045805e-02       6.843696791864e+03 
       6.045807764491e-02       6.561941596841e+03 
       6.381659591267e-02       6.313109654038e+03 
       6.703423340782e-02       6.072561126991e+03 
       7.017073326543e-02       5.827476391229e+03 
       7.326539167171e-02       5.571987168101e+03 
       7.634593288154e-02       5.304965544572e+03 
       7.943305955039e-02       5.028739732587e+03 
       8.254298437910e-02       4.748113931296e+03 
       8.568893168839e-02       4.469462368768e+03 
       8.888207487398e-02       4.199835190472e+03 
       9.213214664113e-02       3.946095142044e+03 
       9.544785014520e-02       3.714137919393e+03 
       9.883714398970e-02       3.508252165282e+03 
       1.023074444615e-01       3.330658488881e+03 
       1.058657717801e-01       3.181243461626e+03 
       1.095188574406e-01       3.057491469774e+03 
       1.132732238687e-01       2.954625899251e+03 
       1.171352439671e-01       2.865994206663e+03 
       1.211111858091e-01       2.783751815027e+03 
       1.252072462339e-01       2.699877497879e+03 
       1.294295761057e-01       2.607463508517e+03 
       1.337842993411e-01       2.502072236272e+03 
       1.382775273699e-01       2.382802198844e+03 
       1.429153704073e-01       2.252657862288e+03 
       1.477039467179e-01       2.117956265619e+03 
       1.526493909326e-01       1.986815061176e+03 
       1.577578623988e-01       1.867115008252e+03 
       1.630355544929e-01       1.764522129400e+03 
       1.684887057968e-01       1.681094237055e+03 
       1.741236140168e-01       1.614776992921e+03 
       1.799466535143e-01       1.559905081022e+03 
       1.859642973028e-01       1.508725417561e+03 
       1.921831443701e-01       1.453776742312e+03 
       1.986099531790e-01       1.390514572659e+03 
       2.052516822191e-01       1.319069844600e+03 
       2.121155385147e-01       1.244071813104e+03 
       2.192090350492e-01       1.172387779624e+03 
       2.265400581696e-01       1.109876108277e+03 
       2.341169461810e-01       1.058790753782e+03 
       2.419485805593e-01       1.016998437950e+03 
       2.500444915202e-01       9.792903305472e+02 
       2.584149801034e-01       9.402567101596e+02 
       2.670712594972e-01       8.973269921608e+02 
       2.760256190919e-01       8.520435706232e+02 
       2.852916157477e-01       8.085349064499e+02 
       2.948842980939e-01       7.703074133495e+02 
       3.048204714308e-01       7.378120266574e+02 
       3.151190131482e-01       7.084969782787e+02 
       3.258012517157e-01       6.791594142339e+02 
       3.368914265663e-01       6.486404871981e+02 
       3.484172520431e-01       6.184371656828e+02 
       3.604106167204e-01       5.907072599970e+02 
       3.729084608956e-01       5.659012629020e+02 
       3.859538915141e-01       5.425568473884e+02 
       3.995976178054e-01       5.192592845884e+02 
       4.138998265890e-01       4.962288076643e+02 
       4.289326702975e-01       4.745280479850e+02 
       4.447836246137e-01       4.542721645123e+02 
       4.615601058011e-01       4.346080053573e+02 
       4.793959551853e-01       4.152137540133e+02 
       4.984607639502e-01       3.965210870972e+02 
       5.189736479249e-01       3.784981089903e+02 
       5.412242332045e-01       3.606964117003e+02 
       5.656057878568e-01       3.431233289101e+02 
       5.926697501739e-01       3.257089500182e+02 
       6.232199621127e-01       3.081353679750e+02 
       6.584851715500e-01       2.902222530211e+02 
       7.004568897982e-01       2.715530276137e+02 
       7.526040269538e-01       2.515731140463e+02 
       8.215060536872e-01       2.293516956331e+02 
       9.207097533263e-01       2.034162828365e+02 
       1.077797708055e+00       1.720705985901e+02 
       1.327440416099e+00       1.368394595342e+02 
       1.668540374491e+00       1.045645942616e+02 
       2.100519723159e+00       7.773062531620e+01 
       2.644397484010e+00       5.599265917166e+01 
       3.329099191418e+00       3.896876220309e+01 
       4.191087570459e+00       2.621588877641e+01 
       5.276266645505e+00       1.710714285646e+01 
       6.642426159429e+00       1.087963116103e+01 
       8.362319088071e+00       6.775975990850e+00 
       1.052753600150e+01       4.151107925653e+00 
