# Matter power spectrum P(k) at redshift z=1.5
# for k=2.40086e-07 to 12.0456 h/Mpc,
# number of wavenumbers equal to 139
#    1:k (h/Mpc)              2:P (Mpc/h)^3        
       2.400859101650e-07       1.708190906164e-01 
       3.022502533205e-07       2.130769174475e-01 
       3.805105246263e-07       2.657886338588e-01 
       4.790343689072e-07       3.315403597847e-01 
       6.030685401401e-07       4.135579784058e-01 
       7.592183102360e-07       5.158654030708e-01 
       9.557992238555e-07       6.434819966326e-01 
       1.203279931485e-06       8.026688289337e-01 
       1.514839683248e-06       1.001235853889e+00 
       1.907070172035e-06       1.248925076917e+00 
       2.400859101650e-06       1.557888509969e+00 
       3.022502533205e-06       1.943284362278e+00 
       3.805105246263e-06       2.424020714647e+00 
       4.790343689072e-06       3.023683156840e+00 
       6.030685401401e-06       3.771691888344e+00 
       7.592183102360e-06       4.704745028951e+00 
       9.557992238555e-06       5.868618910576e+00 
       1.203279931485e-05       7.320413583178e+00 
       1.514839683248e-05       9.131353538644e+00 
       1.907070172035e-05       1.139028072670e+01 
       2.400859101650e-05       1.420801056291e+01 
       3.022502533205e-05       1.772276334655e+01 
       3.805105246263e-05       2.210693496342e+01 
       4.790343689072e-05       2.757553395090e+01 
       6.030685401401e-05       3.439668879040e+01 
       7.592183102360e-05       4.290472098851e+01 
       9.557992238555e-05       5.351638629656e+01 
       1.203279931485e-04       6.675100382730e+01 
       1.514839683248e-04       8.325531023833e+01 
       1.907070172035e-04       1.038339655013e+02 
       2.400859101650e-04       1.294866426334e+02 
       3.022502533205e-04       1.614524500000e+02 
       3.805105246263e-04       2.012618803451e+02 
       4.790343689072e-04       2.507952942435e+02 
       6.030685401401e-04       3.123448644673e+02 
       7.592183102360e-04       3.886739610806e+02 
       9.557992238555e-04       4.830649073974e+02 
       1.203279931485e-03       5.993436565770e+02 
       1.514839683248e-03       7.418632396319e+02 
       1.907070172035e-03       9.153985291140e+02 
       2.400859101650e-03       1.124857328284e+03 
       3.022502533205e-03       1.374739523847e+03 
       3.805105246263e-03       1.668304864729e+03 
       4.790343689072e-03       2.006343714328e+03 
       6.030685401401e-03       2.381647821795e+03 
       7.592183102360e-03       2.790092172218e+03 
       9.557992238555e-03       3.209893789920e+03 
       1.203279931485e-02       3.609702107017e+03 
       1.514839683248e-02       3.943887609889e+03 
       1.907070172020e-02       4.153524285503e+03 
       2.400859038339e-02       4.176033448963e+03 
       3.022467106679e-02       3.971598304280e+03 
       3.801288934339e-02       3.568634683205e+03 
       4.689523123377e-02       3.123986090350e+03 
       5.393612353348e-02       2.847782762356e+03 
       5.914152062509e-02       2.685799967551e+03 
       6.350695254578e-02       2.569117756295e+03 
       6.743962701938e-02       2.472438486994e+03 
       7.112673594929e-02       2.384529903993e+03 
       7.466970457222e-02       2.299607688068e+03 
       7.813037798027e-02       2.214586873170e+03 
       8.154989855687e-02       2.128007307616e+03 
       8.495755610012e-02       2.039526247802e+03 
       8.837538629798e-02       1.949618623242e+03 
       9.182075572515e-02       1.859350571980e+03 
       9.530790769550e-02       1.770173169131e+03 
       9.884893379817e-02       1.683717932645e+03 
       1.024544097788e-01       1.601594832493e+03 
       1.061338258971e-01       1.525201433880e+03 
       1.098958863592e-01       1.455555379641e+03 
       1.137487224427e-01       1.393162921101e+03 
       1.177000469947e-01       1.337934641812e+03 
       1.217572680376e-01       1.289159183920e+03 
       1.259275731822e-01       1.245545629579e+03 
       1.302179927791e-01       1.205345677513e+03 
       1.346354473366e-01       1.166562212006e+03 
       1.391867831646e-01       1.127236773142e+03 
       1.438787991773e-01       1.085784505554e+03 
       1.487182670959e-01       1.041314272161e+03 
       1.537119468418e-01       9.938487183682e+02 
       1.588665986023e-01       9.443613886242e+02 
       1.641889928554e-01       8.945850409620e+02 
       1.696859195100e-01       8.466129677227e+02 
       1.753641972352e-01       8.023842946654e+02 
       1.812306840033e-01       7.631874755830e+02 
       1.872922898372e-01       7.293148100507e+02 
       1.935559927345e-01       6.999671400580e+02 
       2.000288587240e-01       6.734591330338e+02 
       2.067180670050e-01       6.477139505944e+02 
       2.136309411129e-01       6.209425679390e+02 
       2.207749870615e-01       5.922859958096e+02 
       2.281579394292e-01       5.621343496853e+02 
       2.357878163959e-01       5.319242072575e+02 
       2.436729848106e-01       5.034627307058e+02 
       2.518222364811e-01       4.780882210552e+02 
       2.602448770586e-01       4.560716629483e+02 
       2.689508291384e-01       4.365463005980e+02 
       2.779507515591e-01       4.180108916710e+02 
       2.872561773702e-01       3.991726318126e+02 
       2.968796735912e-01       3.796619832102e+02 
       3.068350267643e-01       3.601488943227e+02 
       3.171374594544e-01       3.417611147244e+02 
       3.278038843814e-01       3.252287558642e+02 
       3.388532048961e-01       3.103921170368e+02 
       3.503066732125e-01       2.964239641225e+02 
       3.621883214427e-01       2.825626542995e+02 
       3.745254854188e-01       2.687194753120e+02 
       3.873494480717e-01       2.554083865803e+02 
       4.006962385994e-01       2.431050810022e+02 
       4.146076370371e-01       2.317378758548e+02 
       4.291324530709e-01       2.208442399587e+02 
       4.443281760591e-01       2.101484994649e+02 
       4.602631351144e-01       1.998127679805e+02 
       4.770193718206e-01       1.900703332877e+02 
       4.946965272546e-01       1.808352147586e+02 
       5.134172029971e-01       1.718726946111e+02 
       5.333345148171e-01       1.631650506855e+02 
       5.546429954947e-01       1.548070459992e+02 
       5.775947692948e-01       1.467207289371e+02 
       6.025243143945e-01       1.387974737255e+02 
       6.298877803492e-01       1.310417646239e+02 
       6.603281293599e-01       1.233851405145e+02 
       6.947885975922e-01       1.157349011362e+02 
       7.347223259681e-01       1.080045469299e+02 
       7.825073732890e-01       1.000398622989e+02 
       8.423349129200e-01       9.162627132420e+01 
       9.222587450364e-01       8.242320065807e+01 
       1.039000642464e+00       7.193400830753e+01 
       1.225760802396e+00       5.977652436689e+01 
       1.517872709371e+00       4.709121165713e+01 
       1.909120524627e+00       3.619130855963e+01 
       2.403414289237e+00       2.732947112556e+01 
       3.025719251768e+00       2.014637056719e+01 
       3.809154854979e+00       1.441606019730e+01 
       4.795441844392e+00       9.978025029516e+00 
       6.037103598686e+00       6.675992302919e+00 
       7.600263134020e+00       4.328887018292e+00 
       9.568164395741e+00       2.732725639556e+00 
       1.204560530202e+01       1.687825275111e+00 
