# Matter power spectrum P(k) at redshift z=0.5
# for k=2.10897e-07 to 10.5847 h/Mpc,
# number of wavenumbers equal to 139
#    1:k (h/Mpc)              2:P (Mpc/h)^3        
       2.108969128023e-07       5.273118354260e-01 
       2.655034827957e-07       6.610853281258e-01 
       3.342490814114e-07       8.287957551254e-01 
       4.207946624576e-07       1.039052560890e+00 
       5.297490937152e-07       1.302649315241e+00 
       6.669145959530e-07       1.633117802492e+00 
       8.395957323417e-07       2.047422676794e+00 
       1.056988403079e-06       2.566832342987e+00 
       1.330669560608e-06       3.218010768533e+00 
       1.675213724550e-06       4.034386272855e+00 
       2.108969128023e-06       5.057867554796e+00 
       2.655034827957e-06       6.340995041116e+00 
       3.342490814114e-06       7.949637975814e+00 
       4.207946624576e-06       9.966375663972e+00 
       5.297490937152e-06       1.249473636622e+01 
       6.669145959530e-06       1.566451128605e+01 
       8.395957323417e-06       1.963841612864e+01 
       1.056988403079e-05       2.462044155267e+01 
       1.330669560608e-05       3.086631994875e+01 
       1.675213724550e-05       3.869664330960e+01 
       2.108969128023e-05       4.851330064497e+01 
       2.655034827957e-05       6.082006881825e+01 
       3.342490814114e-05       7.624839418895e+01 
       4.207946624576e-05       9.558964953926e+01 
       5.297490937152e-05       1.198354448649e+02 
       6.669145959530e-05       1.502279084724e+02 
       8.395957323417e-05       1.883222175950e+02 
       1.056988403079e-04       2.360639952183e+02 
       1.330669560608e-04       2.958843872019e+02 
       1.675213724550e-04       3.708154593397e+02 
       2.108969128023e-04       4.646275736437e+02 
       2.655034827957e-04       5.819878864088e+02 
       3.342490814114e-04       7.286340248199e+02 
       4.207946624576e-04       9.115483940720e+02 
       5.297490937152e-04       1.139106874517e+03 
       6.669145959530e-04       1.421164582207e+03 
       8.395957323417e-04       1.769034570258e+03 
       1.056988403079e-03       2.195292632069e+03 
       1.330669560608e-03       2.713234425371e+03 
       1.675213724550e-03       3.335664260922e+03 
       2.108969128023e-03       4.072853954217e+03 
       2.655034827957e-03       4.929595938740e+03 
       3.342490814114e-03       5.901218212873e+03 
       4.207946624576e-03       6.968998351946e+03 
       5.297490937152e-03       8.094997708273e+03 
       6.669145959530e-03       9.202931702546e+03 
       8.395957323417e-03       1.022761004426e+04 
       1.056988403079e-02       1.104300789085e+04 
       1.330669560608e-02       1.151035267708e+04 
       1.675213724550e-02       1.148169422624e+04 
       2.108969127256e-02       1.083491851909e+04 
       2.655033560314e-02       9.546795633369e+03 
       3.342160379512e-02       7.799061714355e+03 
       4.188954240761e-02       6.050612778597e+03 
       5.030245214665e-02       4.932754289448e+03 
       5.635830197692e-02       4.429549054323e+03 
       6.111750877175e-02       4.141914519341e+03 
       6.525952505684e-02       3.931256815113e+03 
       6.906694747316e-02       3.748959843442e+03 
       7.268028372620e-02       3.573992417042e+03 
       7.618011154772e-02       3.396825133369e+03 
       7.961763449715e-02       3.214004885182e+03 
       8.302801268315e-02       3.025800856525e+03 
       8.643692489569e-02       2.834877874209e+03 
       8.986410703134e-02       2.645343139290e+03 
       9.332539960442e-02       2.461948706661e+03 
       9.683400083684e-02       2.289396523018e+03 
       1.004012691676e-01       2.131754663532e+03 
       1.040372567101e-01       1.992009905404e+03 
       1.077510749480e-01       1.871771940853e+03 
       1.115511518792e-01       1.771126455856e+03 
       1.154454166164e-01       1.688621423357e+03 
       1.194414341137e-01       1.621373971405e+03 
       1.235465047349e-01       1.565302809807e+03 
       1.277677384908e-01       1.515515486006e+03 
       1.321121106866e-01       1.466878206446e+03 
       1.365865037359e-01       1.414756009643e+03 
       1.411977385966e-01       1.355825608801e+03 
       1.459525984202e-01       1.288767796249e+03 
       1.508578464373e-01       1.214599717327e+03 
       1.559202397146e-01       1.136463868645e+03 
       1.611465401717e-01       1.058856973116e+03 
       1.665435240780e-01       9.864902369687e+02 
       1.721179911447e-01       9.231122674874e+02 
       1.778767742620e-01       8.706197020917e+02 
       1.838267508873e-01       8.286544560699e+02 
       1.899748570675e-01       7.947485852186e+02 
       1.963281050580e-01       7.650038640222e+02 
       2.028936054922e-01       7.352301187316e+02 
       2.096785950471e-01       7.023002181715e+02 
       2.166904705502e-01       6.652375538052e+02 
       2.239368304834e-01       6.254792060383e+02 
       2.314255248650e-01       5.860819484850e+02 
       2.391647145435e-01       5.502276864373e+02 
       2.471629410261e-01       5.197862377100e+02 
       2.554292081047e-01       4.946073959759e+02 
       2.639730767486e-01       4.728014790817e+02 
       2.728047750312e-01       4.518400917950e+02 
       2.819353252673e-01       4.299420827829e+02 
       2.913766910940e-01       4.069622064454e+02 
       3.011419479762e-01       3.841948834422e+02 
       3.112454816005e-01       3.632530816197e+02 
       3.217032199344e-01       3.448863761219e+02 
       3.325329064530e-01       3.285859905117e+02 
       3.437544243324e-01       3.131692910635e+02 
       3.553901844858e-01       2.977981412177e+02 
       3.674655944666e-01       2.825534243841e+02 
       3.800096309298e-01       2.680982642928e+02 
       3.930555461874e-01       2.548651325510e+02 
       4.066417503810e-01       2.426445501825e+02 
       4.208129264595e-01       2.309316034101e+02 
       4.356214578163e-01       2.195181410628e+02 
       4.511292818597e-01       2.085935903860e+02 
       4.674103330192e-01       1.983247708167e+02 
       4.845538158208e-01       1.885855654980e+02 
       5.026686699041e-01       1.791829238876e+02 
       5.218897844640e-01       1.701128431302e+02 
       5.423868444445e-01       1.614232855513e+02 
       5.643772480326e-01       1.530353636857e+02 
       5.881455263322e-01       1.448653968841e+02 
       6.140735339676e-01       1.368958145738e+02 
       6.426892501042e-01       1.290617755984e+02 
       6.747493463758e-01       1.212807943228e+02 
       7.113866039199e-01       1.134685736678e+02 
       7.543903239401e-01       1.054941113200e+02 
       8.067803464003e-01       9.717681909823e+01 
       8.740792399045e-01       8.823682007970e+01 
       9.673121702004e-01       7.823938000383e+01 
       1.109593778467e+00       6.662006716823e+01 
       1.340374281946e+00       5.343887381599e+01 
       1.677836249362e+00       4.094284855385e+01 
       2.111936203760e+00       3.080071179069e+01 
       2.658767707199e+00       2.275124133958e+01 
       3.347190227733e+00       1.642089930272e+01 
       4.213862835802e+00       1.153615429482e+01 
       5.304939005806e+00       7.869549570622e+00 
       6.678522522427e+00       5.211098648025e+00 
       8.407761716723e+00       3.356490250348e+00 
       1.058474488149e+01       2.110383788629e+00 
