# Matter power spectrum P(k) at redshift z=0
# for k=2.04936e-07 to 10.2828 h/Mpc,
# number of wavenumbers equal to 139
#    1:k (h/Mpc)              2:P (Mpc/h)^3        
       2.049362976470e-07       1.227424806504e+00 
       2.579995129068e-07       1.531069467826e+00 
       3.248021430289e-07       1.909830811828e+00 
       4.089016716643e-07       2.382291466803e+00 
       5.147767053833e-07       2.971631096166e+00 
       6.480654758067e-07       3.706763628597e+00 
       8.158660959995e-07       4.623755819415e+00 
       1.027114560875e-06       5.767596739362e+00 
       1.293060621509e-06       7.194405003090e+00 
       1.627866875409e-06       8.974182024891e+00 
       2.049362976470e-06       1.119424637449e+01 
       2.579995129068e-06       1.396351771489e+01 
       3.248021430289e-06       1.741786048005e+01 
       4.089016716643e-06       2.172674941004e+01 
       5.147767053833e-06       2.710158387996e+01 
       6.480654758067e-06       3.380605875610e+01 
       8.158660959995e-06       4.216910023756e+01 
       1.027114560875e-05       5.260100063807e+01 
       1.293060621509e-05       6.561354233178e+01 
       1.627866875409e-05       8.184509544096e+01 
       2.049362976470e-05       1.020919152320e+02 
       2.579995129068e-05       1.273471640696e+02 
       3.248021430289e-05       1.588495514183e+02 
       4.089016716643e-05       1.981439368210e+02 
       5.147767053833e-05       2.471567874422e+02 
       6.480654758067e-05       3.082900315942e+02 
       8.158660959995e-05       3.845375974614e+02 
       1.027114560875e-04       4.796297385855e+02 
       1.293060621509e-04       5.982110315903e+02 
       1.627866875409e-04       7.460584848372e+02 
       2.049362976470e-04       9.303461307738e+02 
       2.579995129068e-04       1.159961135912e+03 
       3.248021430289e-04       1.445872943011e+03 
       4.089016716643e-04       1.801550425546e+03 
       5.147767053833e-04       2.243412509436e+03 
       6.480654758067e-04       2.791285883645e+03 
       8.158660959995e-04       3.468822964442e+03 
       1.027114560875e-03       4.303771618663e+03 
       1.293060621509e-03       5.327852629497e+03 
       1.627866875409e-03       6.575907798369e+03 
       2.049362976470e-03       8.083916278998e+03 
       2.579995129068e-03       9.885386785480e+03 
       3.248021430289e-03       1.200525849101e+04 
       4.089016716643e-03       1.445093185234e+04 
       5.147767053833e-03       1.719888204744e+04 
       6.480654758067e-03       2.017662644644e+04 
       8.158660959995e-03       2.323990613644e+04 
       1.027114560875e-02       2.614590286618e+04 
       1.293060621509e-02       2.853010444863e+04 
       1.627866875383e-02       2.990940975359e+04 
       2.049362885718e-02       2.976468612693e+04 
       2.579950746385e-02       2.778220812245e+04 
       3.243737659159e-02       2.427711898849e+04 
       3.987100297530e-02       2.071649561869e+04 
       4.562228574045e-02       1.870065203622e+04 
       4.991726698629e-02       1.759001488765e+04 
       5.354478054798e-02       1.683826460984e+04 
       5.682509375260e-02       1.624484758583e+04 
       5.990749033677e-02       1.571739564981e+04 
       6.287369063021e-02       1.520577938706e+04 
       6.577389454685e-02       1.468120506321e+04 
       6.864168599762e-02       1.412824970249e+04 
       7.150108168580e-02       1.354128706790e+04 
       7.437021790491e-02       1.292247146269e+04 
       7.726343371331e-02       1.228017602339e+04 
       8.019252179689e-02       1.162742787495e+04 
       8.316751722368e-02       1.098018675265e+04 
       8.619721510293e-02       1.035548137713e+04 
       8.928952172246e-02       9.769517166812e+03 
       9.245169931661e-02       9.235905170992e+03 
       9.569054054734e-02       8.764157081730e+03 
       9.901249514087e-02       8.358551854746e+03 
       1.024237630912e-01       8.017442145427e+03 
       1.059303639570e-01       7.733060935448e+03 
       1.095381887242e-01       7.491928484324e+03 
       1.132530387532e-01       7.276014586877e+03 
       1.170806550568e-01       7.064816643014e+03 
       1.210267403162e-01       6.838375923578e+03 
       1.250969754838e-01       6.580930573622e+03 
       1.292970324499e-01       6.284467060345e+03 
       1.336325840033e-01       5.951095429466e+03 
       1.381093121553e-01       5.593209797683e+03 
       1.427329157898e-01       5.230948804052e+03 
       1.475091185394e-01       4.887392233110e+03 
       1.524436777405e-01       4.582772404998e+03 
       1.575423953019e-01       4.329295177714e+03 
       1.628111312970e-01       4.127873611147e+03 
       1.682558210853e-01       3.967559454696e+03 
       1.738824967565e-01       3.828108125297e+03 
       1.796973136918e-01       3.685752626220e+03 
       1.857065830382e-01       3.521231916378e+03 
       1.919168109107e-01       3.327347056214e+03 
       1.983347451707e-01       3.112183371734e+03 
       2.049674306907e-01       2.895484895704e+03 
       2.118222741172e-01       2.699403100349e+03 
       2.189071192934e-01       2.538207924658e+03 
       2.262303347254e-01       2.411938366942e+03 
       2.338009147780e-01       2.306837756129e+03 
       2.416285967100e-01       2.202745636630e+03 
       2.497239962192e-01       2.084530785279e+03 
       2.580987649145e-01       1.951101655805e+03 
       2.667657741285e-01       1.815200497898e+03 
       2.757393307868e-01       1.693407513055e+03 
       2.850354327943e-01       1.593852523291e+03 
       2.946720737101e-01       1.510885992575e+03 
       3.046696096062e-01       1.430601206773e+03 
       3.150512052402e-01       1.343087325570e+03 
       3.258433825140e-01       1.250791301708e+03 
       3.370767023260e-01       1.164467270945e+03 
       3.487866224614e-01       1.090896112774e+03 
       3.610145907496e-01       1.025957836146e+03 
       3.738094570135e-01       9.607058315788e+02 
       3.872293235795e-01       8.928610525074e+02 
       4.013440093301e-01       8.284304926342e+02 
       4.162383883116e-01       7.713716237924e+02 
       4.320170013458e-01       7.176821787407e+02 
       4.488105648684e-01       6.633175218243e+02 
       4.667853837646e-01       6.109801178038e+02 
       4.861573462218e-01       5.627792079103e+02 
       5.072134037406e-01       5.156113817297e+02 
       5.303457777130e-01       4.692604776932e+02 
       5.561088295010e-01       4.251020605347e+02 
       5.853185202129e-01       3.812719512420e+02 
       6.192370577771e-01       3.381942937856e+02 
       6.599404893821e-01       2.948613615867e+02 
       7.111101406695e-01       2.507600024086e+02 
       7.798672224749e-01       2.047999175763e+02 
       8.810490860713e-01       1.561830346476e+02 
       1.043620680524e+00       1.065587740037e+02 
       1.295449182536e+00       6.479005312840e+01 
       1.629732969625e+00       3.779419541444e+01 
       2.051697280996e+00       2.179424332744e+01 
       2.582933808310e+00       1.245582255747e+01 
       3.251721008252e+00       7.061509601535e+00 
       4.093674209353e+00       3.974165089300e+00 
       5.153630489761e+00       2.221806372490e+00 
       6.488036386558e+00       1.234618321634e+00 
       8.167953879683e+00       6.822584206266e-01 
       1.028284470150e+01       3.751027488473e-01 
