# Matter power spectrum P(k) at redshift z=2.5
# for k=2.10975e-07 to 10.5887 h/Mpc,
# number of wavenumbers equal to 139
#    1:k (h/Mpc)              2:P (Mpc/h)^3        
       2.109748779648e-07       1.371190783544e-01 
       2.656016351201e-07       1.710400776815e-01 
       3.343726478667e-07       2.133525728548e-01 
       4.209502234083e-07       2.661324814629e-01 
       5.299449333492e-07       3.319692690263e-01 
       6.671611434448e-07       4.140929914123e-01 
       8.399061172443e-07       5.165327669281e-01 
       1.057379154520e-06       6.443144502913e-01 
       1.331161487527e-06       8.037072078296e-01 
       1.675833023849e-06       1.002531090967e+00 
       2.109748779648e-06       1.250540695664e+00 
       2.656016351201e-06       1.559903729390e+00 
       3.343726478667e-06       1.945797962222e+00 
       4.209502234083e-06       2.427155838659e+00 
       5.299449333492e-06       3.027593266881e+00 
       6.671611434448e-06       3.776568124983e+00 
       8.399061172443e-06       4.710825254709e+00 
       1.057379154520e-05       5.876198710948e+00 
       1.331161487527e-05       7.329859461749e+00 
       1.675833023849e-05       9.143118303900e+00 
       2.109748779648e-05       1.140492057627e+01 
       2.656016351201e-05       1.422620223895e+01 
       3.343726478667e-05       1.774531730433e+01 
       4.209502234083e-05       2.213479555229e+01 
       5.299449333492e-05       2.760974752214e+01 
       6.671611434448e-05       3.443830059195e+01 
       8.399061172443e-05       4.295452159807e+01 
       1.057379154520e-04       5.357434932267e+01 
       1.331161487527e-04       6.681510122780e+01 
       1.675833023849e-04       8.331908874669e+01 
       2.109748779648e-04       1.038816831305e+02 
       2.656016351201e-04       1.294836548348e+02 
       3.343726478667e-04       1.613264808619e+02 
       4.209502234083e-04       2.008671670586e+02 
       5.299449333492e-04       2.498455499708e+02 
       6.671611434448e-04       3.102921471654e+02 
       8.399061172443e-04       3.845003013249e+02 
       1.057379154520e-03       4.749471260714e+02 
       1.331161487527e-03       5.841547512532e+02 
       1.675833023849e-03       7.144719164799e+02 
       2.109748779648e-03       8.676816962584e+02 
       2.656016351201e-03       1.044323626039e+03 
       3.343726478667e-03       1.242874769944e+03 
       4.209502234083e-03       1.458871661053e+03 
       5.299449333492e-03       1.683922726842e+03 
       6.671611434448e-03       1.904902042027e+03 
       8.399061172443e-03       2.103566316516e+03 
       1.057379154520e-02       2.256673772758e+03 
       1.331161487527e-02       2.337042197896e+03 
       1.675833023849e-02       2.316412324739e+03 
       2.109748779060e-02       2.172314847638e+03 
       2.656015312642e-02       1.902096052358e+03 
       3.343440847509e-02       1.543123947181e+03 
       4.192333660384e-02       1.186216109860e+03 
       5.046220838439e-02       9.562755974246e+02 
       5.662736733557e-02       8.532004454360e+02 
       6.145150510609e-02       7.949104596701e+02 
       6.564013355519e-02       7.525086981484e+02 
       6.948535665291e-02       7.159773770023e+02 
       7.313162516296e-02       6.810139594779e+02 
       7.666145905355e-02       6.456749437966e+02 
       8.012714760215e-02       6.092544137798e+02 
       8.356451747666e-02       5.718012183158e+02 
       8.699968747490e-02       5.338479090956e+02 
       9.045270148666e-02       4.962165175421e+02 
       9.393962648493e-02       4.598566690120e+02 
       9.747383443857e-02       4.257049711628e+02 
       1.010668221995e-01       3.945678635456e+02 
       1.047287559193e-01       3.670329911540e+02 
       1.084688439237e-01       3.434114616305e+02 
       1.122955987090e-01       3.237100719016e+02 
       1.162170249153e-01       3.076298032548e+02 
       1.202407564503e-01       2.945872172034e+02 
       1.243741577942e-01       2.837605180331e+02 
       1.286243995144e-01       2.741660959502e+02 
       1.329985148644e-01       2.647725149477e+02 
       1.375034423106e-01       2.546497465463e+02 
       1.421460575031e-01       2.431341154740e+02 
       1.469331973275e-01       2.299688857887e+02 
       1.518716780882e-01       2.153708547905e+02 
       1.569683094830e-01       1.999852244132e+02 
       1.622299057746e-01       1.847263659587e+02 
       1.676632953926e-01       1.705451668694e+02 
       1.732753300928e-01       1.581914834105e+02 
       1.790728947331e-01       1.480372200366e+02 
       1.850629186821e-01       1.399982773721e+02 
       1.912523898500e-01       1.335661822264e+02 
       1.976483723138e-01       1.279466543556e+02 
       2.042580284974e-01       1.222911382580e+02 
       2.110886468610e-01       1.159724975011e+02 
       2.181476760500e-01       1.088049549175e+02 
       2.254427664682e-01       1.010935177888e+02 
       2.329818202618e-01       9.346703638173e+01 
       2.407730507542e-01       8.657117342161e+01 
       2.488250524589e-01       8.077768239553e+01 
       2.571468829383e-01       7.604504960058e+01 
       2.657481579813e-01       7.198060039500e+01 
       2.746391618686e-01       6.806822480040e+01 
       2.838309749049e-01       6.395150187308e+01 
       2.933356209515e-01       5.961126238948e+01 
       3.031662384381e-01       5.531916486030e+01 
       3.133372793197e-01       5.140465444573e+01 
       3.238647417479e-01       4.801493342535e+01 
       3.347664439563e-01       4.503953911169e+01 
       3.460623491504e-01       4.223494165769e+01 
       3.577749542625e-01       3.943392559349e+01 
       3.699297595740e-01       3.665917286471e+01 
       3.825558418625e-01       3.404907206575e+01 
       3.956865615469e-01       3.169011421116e+01 
       4.093604452631e-01       2.953631498696e+01 
       4.236223009009e-01       2.748431765756e+01 
       4.385246447041e-01       2.549469854314e+01 
       4.541295532876e-01       2.360893224921e+01 
       4.705111033749e-01       2.186118619299e+01 
       4.877586386968e-01       2.022501488477e+01 
       5.059812238787e-01       1.866228207718e+01 
       5.253138391871e-01       1.717473401642e+01 
       5.459261919476e-01       1.577384339508e+01 
       5.680355720812e-01       1.444493738653e+01 
       5.919261593749e-01       1.317381197845e+01 
       6.179790047402e-01       1.196066947237e+01 
       6.467204276773e-01       1.079670213816e+01 
       6.789037720584e-01       9.671653982738e+00 
       7.156551011733e-01       8.577780285030e+00 
       7.587497267009e-01       7.502615402029e+00 
       8.111768727162e-01       6.432144026697e+00 
       8.783880053764e-01       5.347793100234e+00 
       9.712373209973e-01       4.228392910800e+00 
       1.112489427529e+00       3.068523838545e+00 
       1.341620842838e+00       1.961085450262e+00 
       1.678510842401e+00       1.138948420170e+00 
       2.112735604360e+00       6.466289423655e-01 
       2.659773576014e+00       3.642443995941e-01 
       3.348456540696e+00       2.038031111221e-01 
       4.215457029370e+00       1.133360760285e-01 
       5.306945976600e+00       6.267523740952e-02 
       6.681049148960e+00       3.448237984061e-02 
       8.410942551072e+00       1.888215559363e-02 
       1.058874931469e+01       1.029477550043e-02 
