# Matter power spectrum P(k) at redshift z=2
# for k=2.06231e-07 to 10.3481 h/Mpc,
# number of wavenumbers equal to 139
#    1:k (h/Mpc)              2:P (Mpc/h)^3        
       2.062312104870e-07       2.216770619048e-01 
       2.596297115872e-07       2.765163123053e-01 
       3.268544415739e-07       3.449218889348e-01 
       4.114853624552e-07       4.302498771722e-01 
       5.180293793762e-07       5.366866023188e-01 
       6.521603497526e-07       6.694540171248e-01 
       8.210212368682e-07       8.350658987760e-01 
       1.033604498716e-06       1.041647424017e+00 
       1.301230969178e-06       1.299333801736e+00 
       1.638152733712e-06       1.620767519520e+00 
       2.062312104870e-06       2.021718597060e+00 
       2.596297115872e-06       2.521858275930e+00 
       3.268544415739e-06       3.145724097581e+00 
       4.114853624552e-06       3.923923705713e+00 
       5.180293793762e-06       4.894636409105e+00 
       6.521603497526e-06       6.105486131147e+00 
       8.210212368682e-06       7.615877539255e+00 
       1.033604498716e-05       9.499909796573e+00 
       1.301230969178e-05       1.185001051806e+01 
       1.638152733712e-05       1.478146753708e+01 
       2.062312104870e-05       1.843807939648e+01 
       2.596297115872e-05       2.299919906482e+01 
       3.268544415739e-05       2.868851099210e+01 
       4.114853624552e-05       3.578496139274e+01 
       5.180293793762e-05       4.463635682623e+01 
       6.521603497526e-05       5.567625646046e+01 
       8.210212368682e-05       6.944490444440e+01 
       1.033604498716e-04       8.661506787834e+01 
       1.301230969178e-04       1.080237316457e+02 
       1.638152733712e-04       1.347105903155e+02 
       2.062312104870e-04       1.679640408526e+02 
       2.596297115872e-04       2.093746862443e+02 
       3.268544415739e-04       2.608948189994e+02 
       4.114853624552e-04       3.248994189921e+02 
       5.180293793762e-04       4.042393823093e+02 
       6.521603497526e-04       5.022713380010e+02 
       8.210212368682e-04       6.228431287824e+02 
       1.033604498716e-03       7.702143776556e+02 
       1.301230969178e-03       9.488922452013e+02 
       1.638152733712e-03       1.163322833649e+03 
       2.062312104870e-03       1.417278354045e+03 
       2.596297115872e-03       1.712845439647e+03 
       3.268544415739e-03       2.049163291040e+03 
       4.114853624552e-03       2.420859539171e+03 
       5.180293793762e-03       2.816253758954e+03 
       6.521603497526e-03       3.213822337700e+03 
       8.210212368682e-03       3.587568988144e+03 
       1.033604498716e-02       3.897578877984e+03 
       1.301230969178e-02       4.096828978616e+03 
       1.638152733712e-02       4.134601116693e+03 
       2.062312099677e-02       3.968408109010e+03 
       2.596291819070e-02       3.587971909338e+03 
       3.267614080156e-02       3.048711216892e+03 
       4.076637193228e-02       2.500300923580e+03 
       4.803842218804e-02       2.151487720209e+03 
       5.325253870146e-02       1.968926638147e+03 
       5.747797209580e-02       1.846982318527e+03 
       6.121609867583e-02       1.749749326133e+03 
       6.468409263227e-02       1.663477769462e+03 
       6.799424213917e-02       1.581939510348e+03 
       7.121276059537e-02       1.502236052101e+03 
       7.438260049627e-02       1.423257659589e+03 
       7.753373567846e-02       1.344972803117e+03 
       8.068834768236e-02       1.268019532695e+03 
       8.386367510528e-02       1.193417565967e+03 
       8.707368683288e-02       1.122337100802e+03 
       9.033011827316e-02       1.055904274884e+03 
       9.364314144718e-02       9.950400006983e+02 
       9.702181399859e-02       9.403358666012e+02 
       1.004743890410e-01       8.919709598448e+02 
       1.040085342159e-01       8.496719742642e+02 
       1.076314896407e-01       8.127189178284e+02 
       1.113501835746e-01       7.800001343429e+02 
       1.151713181118e-01       7.501201333899e+02 
       1.191014331752e-01       7.215624484555e+02 
       1.231469545264e-01       6.928991545079e+02 
       1.273142298483e-01       6.630219434151e+02 
       1.316095558738e-01       6.313484392504e+02 
       1.360391988076e-01       5.979458756853e+02 
       1.406094098112e-01       5.635205934946e+02 
       1.453264370001e-01       5.292542559994e+02 
       1.501965351905e-01       4.965148272895e+02 
       1.552259744985e-01       4.665145778439e+02 
       1.604210488044e-01       4.400059370036e+02 
       1.657880850405e-01       4.170946726961e+02 
       1.713334542291e-01       3.972194662298e+02 
       1.770635851712e-01       3.793123384122e+02 
       1.829849816755e-01       3.621165291772e+02 
       1.891042442081e-01       3.445861699540e+02 
       1.954280968334e-01       3.262347336709e+02 
       2.019634203259e-01       3.072790137617e+02 
       2.087172923358e-01       2.884916833489e+02 
       2.156970355289e-01       2.708161614453e+02 
       2.229102746707e-01       2.549263033635e+02 
       2.303650037200e-01       2.409410326331e+02 
       2.380696641394e-01       2.284217821916e+02 
       2.460332358395e-01       2.166440682280e+02 
       2.542653424723e-01       2.050002517690e+02 
       2.627763731962e-01       1.933067314772e+02 
       2.715776235913e-01       1.818276287520e+02 
       2.806814591373e-01       1.710104425204e+02 
       2.901015056496e-01       1.611363314420e+02 
       2.998528723572e-01       1.521403426385e+02 
       3.099524150210e-01       1.437125928889e+02 
       3.204190487671e-01       1.355699863795e+02 
       3.312741233644e-01       1.276581693139e+02 
       3.425418778078e-01       1.201181194007e+02 
       3.542499967336e-01       1.130828315491e+02 
       3.664302990469e-01       1.065288978473e+02 
       3.791196002019e-01       1.003230471890e+02 
       3.923608053838e-01       9.437528067025e+01 
       4.062043138301e-01       8.870252854936e+01 
       4.207098485675e-01       8.334583850634e+01 
       4.359488772606e-01       7.828257388068e+01 
       4.520078692591e-01       7.345450294933e+01 
       4.689927594813e-01       6.883878392892e+01 
       4.870351936993e-01       6.443888810647e+01 
       5.063014709994e-01       6.023544733475e+01 
       5.270056894346e-01       5.619691868147e+01 
       5.494296609974e-01       5.230703388995e+01 
       5.739541487623e-01       4.854538075696e+01 
       6.011098866304e-01       4.488326044014e+01 
       6.316649617718e-01       4.129216681937e+01 
       6.667830913332e-01       3.773435427126e+01 
       7.083298136352e-01       3.416151118657e+01 
       7.595113280859e-01       3.050676859716e+01 
       8.263166346053e-01       2.667451873374e+01 
       9.209320384973e-01       2.253627661421e+01 
       1.068633357442e+00       1.801553294067e+01 
       1.306420907643e+00       1.348742812755e+01 
       1.640143407785e+00       9.864446233304e+00 
       2.064709084679e+00       7.265131464307e+00 
       2.599314203411e+00       5.370717068755e+00 
       3.272342703526e+00       3.955827107014e+00 
       4.119635385568e+00       2.882382126990e+00 
       5.186313674218e+00       2.064622537568e+00 
       6.529182078009e+00       1.446597135813e+00 
       8.219753236236e+00       9.881477156205e-01 
       1.034805622778e+01       6.569311470252e-01 
