# Matter power spectrum P(k) at redshift z=2.5
# for k=2.06108e-07 to 10.3433 h/Mpc,
# number of wavenumbers equal to 139
#    1:k (h/Mpc)              2:P (Mpc/h)^3        
       2.061078463824e-07       1.579307659306e-01 
       2.594744053809e-07       1.970002337005e-01 
       3.266589226442e-07       2.457348436172e-01 
       4.112392187061e-07       3.065255924622e-01 
       5.177195027555e-07       3.823549701975e-01 
       6.517702382003e-07       4.769432852184e-01 
       8.205301155215e-07       5.949311889735e-01 
       1.032986213572e-06       7.421073528602e-01 
       1.300452594299e-06       9.256924688651e-01 
       1.637172817797e-06       1.154693507790e+00 
       2.061078463824e-06       1.440345611646e+00 
       2.594744053809e-06       1.796663303702e+00 
       3.266589226442e-06       2.241128053453e+00 
       4.112392187061e-06       2.795545926019e+00 
       5.177195027555e-06       3.487117384779e+00 
       6.517702382003e-06       4.349771716873e+00 
       8.205301155215e-06       5.425831511316e+00 
       1.032986213572e-05       6.768088788773e+00 
       1.300452594299e-05       8.442394488979e+00 
       1.637172817797e-05       1.053088811206e+01 
       2.061078463824e-05       1.313602539279e+01 
       2.594744053809e-05       1.638560057325e+01 
       3.266589226442e-05       2.043900755124e+01 
       4.112392187061e-05       2.549504292329e+01 
       5.177195027555e-05       3.180162553096e+01 
       6.517702382003e-05       3.966789314596e+01 
       8.205301155215e-05       4.947923779185e+01 
       1.032986213572e-04       6.171595449817e+01 
       1.300452594299e-04       7.697629507148e+01 
       1.637172817797e-04       9.600481727344e+01 
       2.061078463824e-04       1.197269540022e+02 
       2.594744053809e-04       1.492906060203e+02 
       3.266589226442e-04       1.861151231699e+02 
       4.112392187061e-04       2.319470252201e+02 
       5.177195027555e-04       2.889199047213e+02 
       6.517702382003e-04       3.596129740143e+02 
       8.205301155215e-04       4.470991485996e+02 
       1.032986213572e-03       5.549708529102e+02 
       1.300452594299e-03       6.873293330470e+02 
       1.637172817797e-03       8.487077674022e+02 
       2.061078463824e-03       1.043846798484e+03 
       2.594744053809e-03       1.277207184942e+03 
       3.266589226442e-03       1.552219350335e+03 
       4.112392187061e-03       1.870145902548e+03 
       5.177195027555e-03       2.226232310838e+03 
       6.517702382003e-03       2.615104398839e+03 
       8.205301155215e-03       3.017601142289e+03 
       1.032986213572e-02       3.403855682287e+03 
       1.300452594299e-02       3.729207576403e+03 
       1.637172817715e-02       3.934916299560e+03 
       2.061078243251e-02       3.958440964153e+03 
       2.594658451246e-02       3.762055623247e+03 
       3.259750979618e-02       3.382203820972e+03 
       3.977306784671e-02       2.994061215840e+03 
       4.513216273966e-02       2.767110386893e+03 
       4.920881312743e-02       2.628552668668e+03 
       5.269215508072e-02       2.526240712629e+03 
       5.586191603722e-02       2.440197165561e+03 
       5.885163700095e-02       2.360982790214e+03 
       6.173570291597e-02       2.283497258019e+03 
       6.456038679423e-02       2.204911773839e+03 
       6.735694508233e-02       2.123839076030e+03 
       7.014790375541e-02       2.039935970632e+03 
       7.295038351431e-02       1.953662201473e+03 
       7.577799524054e-02       1.866088962319e+03 
       7.864198615817e-02       1.778713575722e+03 
       8.155196670321e-02       1.693264135852e+03 
       8.451638981258e-02       1.611497144020e+03 
       8.754287729912e-02       1.534998248067e+03 
       9.063844808769e-02       1.464999034865e+03 
       9.380968133561e-02       1.402225385068e+03 
       9.706283506745e-02       1.346789706698e+03 
       1.004039336242e-01       1.298139966596e+03 
       1.038388327508e-01       1.255077681953e+03 
       1.073732683385e-01       1.215858982649e+03 
       1.110128930377e-01       1.178390871154e+03 
       1.147633037822e-01       1.140521277685e+03 
       1.186300624890e-01       1.100398932755e+03 
       1.226187116818e-01       1.056842750948e+03 
       1.267347864423e-01       1.009629667254e+03 
       1.309838238647e-01       9.596019390732e+02 
       1.353713710418e-01       9.085247020689e+02 
       1.399029925106e-01       8.586958044249e+02 
       1.445842780306e-01       8.123897947362e+02 
       1.494208515226e-01       7.712792005573e+02 
       1.544183819792e-01       7.359866354874e+02 
       1.595825971386e-01       7.058924086812e+02 
       1.649193007022e-01       6.792731411578e+02 
       1.704343938755e-01       6.537874337719e+02 
       1.761339020020e-01       6.272274102545e+02 
       1.820240070726e-01       5.983139037953e+02 
       1.881110869067e-01       5.671990638722e+02 
       1.944017618401e-01       5.353862630677e+02 
       2.009029498171e-01       5.050359994118e+02 
       2.076219308927e-01       4.779622025221e+02 
       2.145664223011e-01       4.548020091948e+02 
       2.217446654741e-01       4.347596889665e+02 
       2.291655267040e-01       4.160677702013e+02 
       2.368386135722e-01       3.969773960584e+02 
       2.447744098324e-01       3.767573705961e+02 
       2.529844321999e-01       3.560547015129e+02 
       2.614814134969e-01       3.363224786446e+02 
       2.702795179334e-01       3.187121315459e+02 
       2.793945960619e-01       3.032576444640e+02 
       2.888444892927e-01       2.889577321526e+02 
       2.986493970276e-01       2.746783136914e+02 
       3.088323237763e-01       2.601117238231e+02 
       3.194196295695e-01       2.459067425849e+02 
       3.304417152911e-01       2.328551698617e+02 
       3.419338863433e-01       2.210222778478e+02 
       3.539374550641e-01       2.097693830639e+02 
       3.665011672743e-01       1.985870801673e+02 
       3.796830756668e-01       1.876593961881e+02 
       3.935530397895e-01       1.774250377069e+02 
       4.081961215219e-01       1.678481293842e+02 
       4.237172878699e-01       1.585394973987e+02 
       4.402480685893e-01       1.494312134176e+02 
       4.579562172500e-01       1.407383610372e+02 
       4.770601315923e-01       1.323887695409e+02 
       4.978510870303e-01       1.241902709624e+02 
       5.207288301759e-01       1.161969362727e+02 
       5.462611215506e-01       1.083483460067e+02 
       5.752886308801e-01       1.005257410503e+02 
       6.091213525612e-01       9.266961701745e+01 
       6.499335141576e-01       8.461797503816e+01 
       7.016228001492e-01       7.617495068719e+01 
       7.718166198565e-01       6.703735004846e+01 
       8.764798502278e-01       5.683200772044e+01 
       1.045632284955e+00       4.558726873225e+01 
       1.302692196187e+00       3.499146067215e+01 
       1.639304084332e+00       2.666246090156e+01 
       2.063754223171e+00       2.022893887318e+01 
       2.598112621432e+00       1.516323247631e+01 
       3.270830001820e+00       1.115093416384e+01 
       4.117731006950e+00       8.001267540071e+00 
       5.183916203583e+00       5.579928693326e+00 
       6.526163841302e+00       3.773432469535e+00 
       8.215953501347e+00       2.474406181914e+00 
       1.034327264497e+01       1.577278011006e+00 
