# Matter power spectrum P(k) at redshift z=2.5
# for k=2.1029e-07 to 10.5517 h/Mpc,
# number of wavenumbers equal to 139
#    1:k (h/Mpc)              2:P (Mpc/h)^3        
       2.102897869036e-07       1.709910464337e-01 
       2.647391565738e-07       2.128351577999e-01 
       3.332868517077e-07       2.649191599634e-01 
       4.195832870317e-07       3.297489099608e-01 
       5.282240624083e-07       4.104434859181e-01 
       6.649946952869e-07       5.108852519612e-01 
       8.371787206050e-07       6.359066449946e-01 
       1.053945565583e-06       7.915226719055e-01 
       1.326838855160e-06       9.852203012416e-01 
       1.670391152117e-06       1.226318674419e+00 
       2.102897869036e-06       1.526417460148e+00 
       2.647391565738e-06       1.899954929359e+00 
       3.332868517077e-06       2.364902590345e+00 
       4.195832870317e-06       2.943629799743e+00 
       5.282240624083e-06       3.663979929169e+00 
       6.649946952869e-06       4.560609838800e+00 
       8.371787206050e-06       5.676657036935e+00 
       1.053945565583e-05       7.065814622706e+00 
       1.326838855160e-05       8.794913610081e+00 
       1.670391152117e-05       1.094713640603e+01 
       2.102897869036e-05       1.362601517955e+01 
       2.647391565738e-05       1.696040566753e+01 
       3.332868517077e-05       2.111067226304e+01 
       4.195832870317e-05       2.627637503925e+01 
       5.282240624083e-05       3.270581495691e+01 
       6.649946952869e-05       4.070786977108e+01 
       8.371787206050e-05       5.066663745587e+01 
       1.053945565583e-04       6.305948861412e+01 
       1.326838855160e-04       7.847919471164e+01 
       1.670391152117e-04       9.766080468303e+01 
       2.102897869036e-04       1.215138067455e+02 
       2.647391565738e-04       1.511596841353e+02 
       3.332868517077e-04       1.879739926324e+02 
       4.195832870317e-04       2.336301685272e+02 
       5.282240624083e-04       2.901390018777e+02 
       6.649946952869e-04       3.598730822023e+02 
       8.371787206050e-04       4.455609946636e+02 
       1.053945565583e-03       5.502351954149e+02 
       1.326838855160e-03       6.771207685830e+02 
       1.670391152117e-03       8.294374987755e+02 
       2.102897869036e-03       1.010016064026e+03 
       2.647391565738e-03       1.220605903566e+03 
       3.332868517077e-03       1.460967476875e+03 
       4.195832870317e-03       1.727777079666e+03 
       5.282240624083e-03       2.013247288837e+03 
       6.649946952869e-03       2.302933703034e+03 
       8.371787206050e-03       2.577253386087e+03 
       1.053945565583e-02       2.806795859638e+03 
       1.326838855160e-02       2.954879146814e+03 
       1.670391152116e-02       2.979981685944e+03 
       2.102897863690e-02       2.845191316075e+03 
       2.647386126512e-02       2.539223768235e+03 
       3.331915015273e-02       2.107778889375e+03 
       4.156730720394e-02       1.680055776895e+03 
       4.897748730235e-02       1.425215263743e+03 
       5.429093573526e-02       1.304079690206e+03 
       5.859748766593e-02       1.229968905049e+03 
       6.240766796168e-02       1.174062852430e+03 
       6.594266260587e-02       1.125136859177e+03 
       6.931685564759e-02       1.077892357072e+03 
       7.259770544785e-02       1.029702817071e+03 
       7.582897649831e-02       9.794571251111e+02 
       7.904121168790e-02       9.270440119423e+02 
       8.225701513836e-02       8.730549497459e+02 
       8.549395482343e-02       8.185591705718e+02 
       8.876626720275e-02       7.649008273016e+02 
       9.208591296464e-02       7.135066460957e+02 
       9.546325976492e-02       6.657088254619e+02 
       9.890753972958e-02       6.225945067531e+02 
       1.024271651731e-01       5.848916440865e+02 
       1.060299518134e-01       5.528951757445e+02 
       1.097232797198e-01       5.264327562836e+02 
       1.135142111790e-01       5.048678519434e+02 
       1.174095780179e-01       4.871406956703e+02 
       1.214160468161e-01       4.718559494129e+02 
       1.255401678291e-01       4.574294878738e+02 
       1.297884117584e-01       4.423012445432e+02 
       1.341671973966e-01       4.251978916586e+02 
       1.386829124379e-01       4.053962707825e+02 
       1.433419292585e-01       3.829085132028e+02 
       1.481506171426e-01       3.585089200813e+02 
       1.531153522164e-01       3.335621458803e+02 
       1.582425262130e-01       3.096842165745e+02 
       1.635385551012e-01       2.883334521642e+02 
       1.690098885555e-01       2.704505198171e+02 
       1.746630212105e-01       2.562370813296e+02 
       1.805045066185e-01       2.451128588618e+02 
       1.865409748188e-01       2.358615279160e+02 
       1.927791544118e-01       2.269636956800e+02 
       1.992259000307e-01       2.170749156660e+02 
       2.058882261026e-01       2.055094424594e+02 
       2.127733478031e-01       1.925033244947e+02 
       2.198887301399e-01       1.790783283010e+02 
       2.272421461555e-01       1.665405304674e+02 
       2.348417453354e-01       1.558699142184e+02 
       2.426961334515e-01       1.473041538274e+02 
       2.508144652873e-01       1.402894164319e+02 
       2.592065519914e-01       1.338062984250e+02 
       2.678829852265e-01       1.269339234438e+02 
       2.768552808425e-01       1.193614218091e+02 
       2.861360455557e-01       1.115060878302e+02 
       2.957391711141e-01       1.041357957894e+02 
       3.056800617463e-01       9.778498881103e+01 
       3.159759024374e-01       9.240539770047e+01 
       3.266459778978e-01       8.748274629067e+01 
       3.377120552050e-01       8.250073760579e+01 
       3.491988473138e-01       7.736011514770e+01 
       3.611345804050e-01       7.237523245072e+01 
       3.735516960541e-01       6.787779968136e+01 
       3.864877304803e-01       6.386852779761e+01 
       3.999864292586e-01       6.007628632141e+01 
       4.140991793230e-01       5.630997630549e+01 
       4.288868748039e-01       5.265045906342e+01 
       4.444223856890e-01       4.925708483319e+01 
       4.607938792673e-01       4.611070764136e+01 
       4.781093723796e-01       4.307721920934e+01 
       4.965031005043e-01       4.013400895596e+01 
       5.161446377571e-01       3.734797610413e+01 
       5.372523039905e-01       3.469928941074e+01 
       5.601134766417e-01       3.212977030651e+01 
       5.851164518359e-01       2.965047155980e+01 
       6.128024860181e-01       2.725023279631e+01 
       6.439549341863e-01       2.489523183802e+01 
       6.797607188117e-01       2.257333516511e+01 
       7.221227234580e-01       2.024877631525e+01 
       7.743116364393e-01       1.788338625769e+01 
       8.424375772970e-01       1.541947139658e+01 
       9.389344169482e-01       1.278471446481e+01 
       1.089588997429e+00       9.951843714335e+00 
       1.332114285822e+00       7.188504707230e+00 
       1.672418025146e+00       5.064110506238e+00 
       2.105338911099e+00       3.613167847893e+00 
       2.650464118149e+00       2.608992228774e+00 
       3.336736630996e+00       1.894149041112e+00 
       4.200702537225e+00       1.372439989058e+00 
       5.288371171501e+00       9.851587401135e-01 
       6.657664854803e+00       6.959569188587e-01 
       8.381503468920e+00       4.813614356426e-01 
       1.055168770606e+01       3.249149891684e-01 
