# Matter power spectrum P(k) at redshift z=2.5
# for k=2.06815e-07 to 10.3783 h/Mpc,
# number of wavenumbers equal to 139
#    1:k (h/Mpc)              2:P (Mpc/h)^3        
       2.068154081451e-07       1.561191971369e-01 
       2.603651728644e-07       1.947405126258e-01 
       3.277803324652e-07       2.429161048298e-01 
       4.126509900268e-07       3.030095441835e-01 
       5.194968175468e-07       3.779691094717e-01 
       6.540077449558e-07       4.714724349117e-01 
       8.233469696351e-07       5.881069404743e-01 
       1.036532422797e-06       7.335948977237e-01 
       1.304917007208e-06       9.150741726057e-01 
       1.642793180657e-06       1.141448419859e+00 
       2.068154081451e-06       1.423823907030e+00 
       2.603651728644e-06       1.776054400768e+00 
       3.277803324652e-06       2.215420845816e+00 
       4.126509900268e-06       2.763479175585e+00 
       5.194968175468e-06       3.447117842679e+00 
       6.540077449558e-06       4.299876935053e+00 
       8.233469696351e-06       5.363593558112e+00 
       1.036532422797e-05       6.690454141290e+00 
       1.304917007208e-05       8.345554211756e+00 
       1.642793180657e-05       1.041009095202e+01 
       2.068154081451e-05       1.298534462161e+01 
       2.603651728644e-05       1.619764310275e+01 
       3.277803324652e-05       2.020455099899e+01 
       4.126509900268e-05       2.520258271179e+01 
       5.194968175468e-05       3.143680962100e+01 
       6.540077449558e-05       3.921281618720e+01 
       8.233469696351e-05       4.891155937515e+01 
       1.036532422797e-04       6.100779653407e+01 
       1.304917007208e-04       7.609286117154e+01 
       1.642793180657e-04       9.490266027635e+01 
       2.068154081451e-04       1.183517948410e+02 
       2.603651728644e-04       1.475745744372e+02 
       3.277803324652e-04       1.839732423459e+02 
       4.126509900268e-04       2.292726905667e+02 
       5.194968175468e-04       2.855790012517e+02 
       6.540077449558e-04       3.554361311183e+02 
       8.233469696351e-04       4.418714650914e+02 
       1.036532422797e-03       5.484183124628e+02 
       1.304917007208e-03       6.791011892488e+02 
       1.642793180657e-03       8.383543538390e+02 
       2.068154081451e-03       1.030791773262e+03 
       2.603651728644e-03       1.260714427992e+03 
       3.277803324652e-03       1.531355020666e+03 
       4.126509900268e-03       1.843746089783e+03 
       5.194968175468e-03       2.193085170719e+03 
       6.540077449558e-03       2.573458897243e+03 
       8.233469696351e-03       2.965685986533e+03 
       1.036532422797e-02       3.339898823740e+03 
       1.304917007208e-02       3.651678909777e+03 
       1.642793180600e-02       3.842835551297e+03 
       2.068153913837e-02       3.851679990669e+03 
       2.603581744140e-02       3.641563296525e+03 
       3.271867432115e-02       3.249863037683e+03 
       4.002039614017e-02       2.850753208207e+03 
       4.552953406080e-02       2.619440841192e+03 
       4.969549315110e-02       2.481873659606e+03 
       5.324235730507e-02       2.382266300202e+03 
       5.646362908010e-02       2.299571856214e+03 
       5.949837135477e-02       2.223955062943e+03 
       6.242362270307e-02       2.150123752185e+03 
       6.528711718273e-02       2.075137537362e+03 
       6.812100023880e-02       1.997538604532e+03 
       7.094838187555e-02       1.916940660461e+03 
       7.378679081283e-02       1.833782530444e+03 
       7.665013799076e-02       1.749133751484e+03 
       7.954990124924e-02       1.664506402857e+03 
       8.249587526965e-02       1.581656601161e+03 
       8.549666534330e-02       1.502378569845e+03 
       8.856002319351e-02       1.428302023484e+03 
       9.169308158052e-02       1.360706274161e+03 
       9.490252183578e-02       1.300366445608e+03 
       9.819469562803e-02       1.247443629616e+03 
       1.015757146769e-01       1.201430531434e+03 
       1.050515175037e-01       1.161163903212e+03 
       1.086279194101e-01       1.124917720665e+03 
       1.123106500161e-01       1.090590484199e+03 
       1.161053814807e-01       1.055988897213e+03 
       1.200177497229e-01       1.019187672782e+03 
       1.240533704358e-01       9.789084092792e+02 
       1.282178513241e-01       9.348259980606e+02 
       1.325168017673e-01       8.876988831996e+02 
       1.369558409528e-01       8.392472310803e+02 
       1.415406054245e-01       7.917739463614e+02 
       1.462767569311e-01       7.476079788554e+02 
       1.511699914167e-01       7.085143776414e+02 
       1.562260499746e-01       6.752274530024e+02 
       1.614507325661e-01       6.472326500253e+02 
       1.668499152991e-01       6.228741364935e+02 
       1.724295720504e-01       5.998107540301e+02 
       1.781958012179e-01       5.757555887151e+02 
       1.841548583905e-01       5.492923730207e+02 
       1.903131957426e-01       5.204325073792e+02 
       1.966775089974e-01       4.905974692363e+02 
       2.032547928652e-01       4.619613847779e+02 
       2.100524059693e-01       4.364391813174e+02 
       2.170781464229e-01       4.148094166227e+02 
       2.243403394495e-01       3.963917186651e+02 
       2.318479387457e-01       3.794469717787e+02 
       2.396106437164e-01       3.621471592881e+02 
       2.476390352784e-01       3.436215034912e+02 
       2.559447336920e-01       3.244118065941e+02 
       2.645405828812e-01       3.059729402583e+02 
       2.734408670330e-01       2.895582414520e+02 
       2.826615670267e-01       2.753235586535e+02 
       2.922206665978e-01       2.623150879925e+02 
       3.021385213073e-01       2.493365599214e+02 
       3.124383076981e-01       2.359723040809e+02 
       3.231465759641e-01       2.228269381722e+02 
       3.342939377531e-01       2.107524673674e+02 
       3.459159324985e-01       1.999054385712e+02 
       3.580541326278e-01       1.896654411399e+02 
       3.707575728749e-01       1.794571707069e+02 
       3.840846260977e-01       1.694140779693e+02 
       3.981055047459e-01       1.600109903707e+02 
       4.129056557270e-01       1.512707379613e+02 
       4.285904583003e-01       1.427920237207e+02 
       4.452918683177e-01       1.344630254220e+02 
       4.631780492644e-01       1.265166382676e+02 
       4.824677297093e-01       1.189159402753e+02 
       5.034523076557e-01       1.114488092583e+02 
       5.265311774481e-01       1.041676348946e+02 
       5.522707092107e-01       9.703771520288e+01 
       5.815079087771e-01       8.993268521528e+01 
       6.155439856708e-01       8.281245406229e+01 
       6.565323032002e-01       7.552674641313e+01 
       7.083196444968e-01       6.790707962774e+01 
       7.784062224299e-01       5.968651177522e+01 
       8.824715573659e-01       5.053710717593e+01 
       1.050388299437e+00       4.046692316209e+01 
       1.307199405655e+00       3.094695937957e+01 
       1.644851315891e+00       2.349360336283e+01 
       2.070735822519e+00       1.778881908545e+01 
       2.606901929147e+00       1.333172116398e+01 
       3.281895084654e+00       9.819121304660e+00 
       4.131661120913e+00       7.067230580926e+00 
       5.201453178040e+00       4.950089457145e+00 
       6.548241584092e+00       3.365271442877e+00 
       8.243747732780e+00       2.219047241613e+00 
       1.037826350922e+01       1.421680857632e+00 
