# Matter power spectrum P(k) at redshift z=2.5
# for k=2.09009e-07 to 10.4877 h/Mpc,
# number of wavenumbers equal to 139
#    1:k (h/Mpc)              2:P (Mpc/h)^3        
       2.090085401045e-07       1.366868165802e-01 
       2.631261624195e-07       1.705008814768e-01 
       3.312562123778e-07       2.126799885084e-01 
       4.170268635771e-07       2.652935112098e-01 
       5.250057159580e-07       3.309227518874e-01 
       6.609430371567e-07       4.127875842705e-01 
       8.320779852250e-07       5.149044256844e-01 
       1.047524120194e-06       6.422832884287e-01 
       1.318754734380e-06       8.011735782768e-01 
       1.660213847035e-06       9.993706996752e-01 
       2.090085401045e-06       1.246598507682e+00 
       2.631261624195e-06       1.554986372704e+00 
       3.312562123778e-06       1.939664257958e+00 
       4.170268635771e-06       2.419505005379e+00 
       5.250057159580e-06       3.018050234368e+00 
       6.609430371567e-06       3.764665273668e+00 
       8.320779852250e-06       4.695979750546e+00 
       1.047524120194e-05       5.857684466117e+00 
       1.318754734380e-05       7.306772593439e+00 
       1.660213847035e-05       9.114334941180e+00 
       2.090085401045e-05       1.136904597572e+01 
       2.631261624195e-05       1.418151075820e+01 
       3.312562123778e-05       1.768968435161e+01 
       4.170268635771e-05       2.206562617277e+01 
       5.250057159580e-05       2.752391396008e+01 
       6.609430371567e-05       3.433211689150e+01 
       8.320779852250e-05       4.282381562753e+01 
       1.047524120194e-04       5.341475660204e+01 
       1.318754734380e-04       6.662283251442e+01 
       1.660213847035e-04       8.309267254066e+01 
       2.090085401045e-04       1.036256677979e+02 
       2.631261624195e-04       1.292161754416e+02 
       3.312562123778e-04       1.610943067331e+02 
       4.170268635771e-04       2.007748981728e+02 
       5.250057159580e-04       2.501107247820e+02 
       6.609430371567e-04       3.113455811402e+02 
       8.320779852250e-04       3.871598907758e+02 
       1.047524120194e-03       4.806991404705e+02 
       1.318754734380e-03       5.955731663674e+02 
       1.660213847035e-03       7.358006872366e+02 
       2.090085401045e-03       9.056262843460e+02 
       2.631261624195e-03       1.109135261341e+03 
       3.312562123778e-03       1.349598336355e+03 
       4.170268635771e-03       1.627433742754e+03 
       5.250057159580e-03       1.942478786079e+03 
       6.609430371567e-03       2.286851613460e+03 
       8.320779852250e-03       2.645354731341e+03 
       1.047524120194e-02       2.991521823319e+03 
       1.318754734380e-02       3.284637071362e+03 
       1.660213846996e-02       3.469555181872e+03 
       2.090085274758e-02       3.485401694068e+03 
       2.631204676475e-02       3.292435633621e+03 
       3.307418079664e-02       2.920748124598e+03 
       4.055511429445e-02       2.534200137530e+03 
       4.626603041880e-02       2.311437370324e+03 
       5.055803791633e-02       2.184277492100e+03 
       5.419813093296e-02       2.095930444242e+03 
       5.749718386817e-02       2.025039328143e+03 
       6.060132285871e-02       1.961581981001e+03 
       6.359103226039e-02       1.900052092990e+03 
       6.651597257946e-02       1.837255027528e+03 
       6.940947952640e-02       1.771455451445e+03 
       7.229545713330e-02       1.701992323878e+03 
       7.519199746969e-02       1.629060985444e+03 
       7.811343224378e-02       1.553545876442e+03 
       8.107156774603e-02       1.476853313009e+03 
       8.407646512601e-02       1.400727255071e+03 
       8.713695333157e-02       1.327047140463e+03 
       9.026097751850e-02       1.257620009951e+03 
       9.345584219003e-02       1.193981455610e+03 
       9.672838467546e-02       1.137222175754e+03 
       1.000851011303e-01       1.087853729718e+03 
       1.035322393217e-01       1.045723032492e+03 
       1.070758676408e-01       1.009985411036e+03 
       1.107219267634e-01       9.791495256108e+02 
       1.144762684489e-01       9.512098604034e+02 
       1.183446847079e-01       9.238828154071e+02 
       1.223329297352e-01       8.949448565398e+02 
       1.264467364552e-01       8.626378064007e+02 
       1.306918291558e-01       8.260598607196e+02 
       1.350739334433e-01       7.854281183604e+02 
       1.395987845919e-01       7.421010889833e+02 
       1.442721352563e-01       6.983074649520e+02 
       1.490997634509e-01       6.566222632849e+02 
       1.540874816592e-01       6.193239742026e+02 
       1.592411479094e-01       5.878063889940e+02 
       1.645666796386e-01       5.621973944489e+02 
       1.700700711540e-01       5.412850007588e+02 
       1.757574154943e-01       5.228061710454e+02 
       1.816349314917e-01       5.041008383442e+02 
       1.877089968389e-01       4.830117827555e+02 
       1.939861879846e-01       4.587241011286e+02 
       2.004733277157e-01       4.321243492489e+02 
       2.071775413480e-01       4.054071264641e+02 
       2.141063225536e-01       3.810537542793e+02 
       2.212676100050e-01       3.606780910322e+02 
       2.286698762437e-01       3.442986728442e+02 
       2.363222304936e-01       3.303768743105e+02 
       2.442345375699e-01       3.166490820310e+02 
       2.524175556075e-01       3.014126412492e+02 
       2.608830961009e-01       2.845351811081e+02 
       2.696442107585e-01       2.674367252335e+02 
       2.787154110135e-01       2.519778803291e+02 
       2.881129278113e-01       2.390775214726e+02 
       2.978550216611e-01       2.281025925269e+02 
       3.079623561318e-01       2.174858016072e+02 
       3.184584523144e-01       2.061071168580e+02 
       3.293702477475e-01       1.942368724274e+02 
       3.407287916553e-01       1.830835568044e+02 
       3.525701201682e-01       1.734101969969e+02 
       3.649363722328e-01       1.647481783557e+02 
       3.778772318730e-01       1.560832352258e+02 
       3.914518197396e-01       1.471564870628e+02 
       4.057312137206e-01       1.386457853011e+02 
       4.208018670339e-01       1.309929073817e+02 
       4.367703340323e-01       1.237360489591e+02 
       4.537699471899e-01       1.164145466710e+02 
       4.719704845661e-01       1.093348284261e+02 
       4.915925627378e-01       1.027256474496e+02 
       5.129297623915e-01       9.622293341338e+01 
       5.363839271762e-01       8.979932266724e+01 
       5.625239751269e-01       8.359469916873e+01 
       5.921890127589e-01       7.737771450504e+01 
       6.266803344514e-01       7.117392372895e+01 
       6.681449626437e-01       6.482558495054e+01 
       7.204044482742e-01       5.821065265394e+01 
       7.908811720930e-01       5.109561922049e+01 
       8.950683925566e-01       4.320717678865e+01 
       1.062855384622e+00       3.454073865566e+01 
       1.321112823397e+00       2.632742527676e+01 
       1.662205604391e+00       1.992716400052e+01 
       2.092580941062e+00       1.507689225822e+01 
       2.634403296551e+00       1.131680634700e+01 
       3.316517254935e+00       8.365350812708e+00 
       4.175247850892e+00       6.053193063990e+00 
       5.256325620026e+00       4.268372208985e+00 
       6.617321895716e+00       2.924068589355e+00 
       8.330714692539e+00       1.943417600025e+00 
       1.048774842484e+01       1.254250256006e+00 
