# Matter power spectrum P(k) at redshift z=1
# for k=2.08362e-07 to 10.4546 h/Mpc,
# number of wavenumbers equal to 139
#    1:k (h/Mpc)              2:P (Mpc/h)^3        
       2.083619607956e-07       4.347384596243e-01 
       2.623121672969e-07       5.422855872513e-01 
       3.302314532329e-07       6.764381009613e-01 
       4.157367682486e-07       8.437777345320e-01 
       5.233815821653e-07       1.052514433814e+00 
       6.588983738529e-07       1.312889149407e+00 
       8.295039066333e-07       1.637676273411e+00 
       1.044283547243e-06       2.042810370112e+00 
       1.314675094743e-06       2.548167948702e+00 
       1.655077885025e-06       3.178542631949e+00 
       2.083619607956e-06       3.964861562497e+00 
       2.623121672969e-06       4.945702720195e+00 
       3.302314532329e-06       6.169187586155e+00 
       4.157367682486e-06       7.695341995855e+00 
       5.233815821653e-06       9.599040971991e+00 
       6.588983738529e-06       1.197368196114e+01 
       8.295039066333e-06       1.493576656428e+01 
       1.044283547243e-05       1.863061530748e+01 
       1.314675094743e-05       2.323949535476e+01 
       1.655077885025e-05       2.898850993086e+01 
       2.083619607956e-05       3.615968371778e+01 
       2.623121672969e-05       4.510478445619e+01 
       3.302314532329e-05       5.626255162040e+01 
       4.157367682486e-05       7.018016318988e+01 
       5.233815821653e-05       8.753996556127e+01 
       6.588983738529e-05       1.091927226020e+02 
       8.295039066333e-05       1.361989059799e+02 
       1.044283547243e-04       1.698798387281e+02 
       1.314675094743e-04       2.118807836201e+02 
       1.655077885025e-04       2.642482625310e+02 
       2.083619607956e-04       3.295238507584e+02 
       2.623121672969e-04       4.108561356262e+02 
       3.302314532329e-04       5.121310181963e+02 
       4.157367682486e-04       6.381174997430e+02 
       5.233815821653e-04       7.946211454846e+02 
       6.588983738529e-04       9.886310997642e+02 
       8.295039066333e-04       1.228440494658e+03 
       1.044283547243e-03       1.523711696922e+03 
       1.314675094743e-03       1.885423852841e+03 
       1.655077885025e-03       2.325550738098e+03 
       2.083619607956e-03       2.856267531767e+03 
       2.623121672969e-03       3.488561117473e+03 
       3.302314532329e-03       4.230056976054e+03 
       4.157367682486e-03       5.081782030781e+03 
       5.233815821653e-03       6.020754437272e+03 
       6.588983738529e-03       7.039123792729e+03 
       8.295039066333e-03       8.075781477148e+03 
       1.044283547243e-02       9.045546069659e+03 
       1.314675094743e-02       9.824524676303e+03 
       1.655077885002e-02       1.025348113810e+04 
       2.083619523336e-02       1.016742545970e+04 
       2.623079345426e-02       9.475193154212e+03 
       3.298153273231e-02       8.292374829907e+03 
       4.056597671961e-02       7.099586755117e+03 
       4.645682689350e-02       6.418620495965e+03 
       5.084842959289e-02       6.037876365908e+03 
       5.455321618045e-02       5.774771654790e+03 
       5.790130587983e-02       5.563068950914e+03 
       6.104621681308e-02       5.372826973614e+03 
       6.407184356524e-02       5.188229456967e+03 
       6.702965804523e-02       5.000552626373e+03 
       6.995406273921e-02       4.805449549809e+03 
       7.286964119253e-02       4.601693525628e+03 
       7.579494611146e-02       4.390442636582e+03 
       7.874463794038e-02       4.174669026021e+03 
       8.173076811282e-02       3.958610175306e+03 
       8.476358777946e-02       3.747197466973e+03 
       8.785207833327e-02       3.545468526727e+03 
       9.100431113810e-02       3.357997044480e+03 
       9.422769820723e-02       3.188381869606e+03 
       9.752917085243e-02       3.038834004792e+03 
       1.009153093197e-01       2.909889991784e+03 
       1.043924381853e-01       2.800271666390e+03 
       1.079666972759e-01       2.706913944005e+03 
       1.116440947422e-01       2.625192962481e+03 
       1.154305469148e-01       2.549393318242e+03 
       1.193319082650e-01       2.473438799470e+03 
       1.233539939343e-01       2.391851649752e+03 
       1.275025967227e-01       2.300804590413e+03 
       1.317835000471e-01       2.199017783524e+03 
       1.362024881249e-01       2.088198542165e+03 
       1.407653544768e-01       1.972785528837e+03 
       1.454779097299e-01       1.858956965283e+03 
       1.503459896401e-01       1.753120902420e+03 
       1.553754642043e-01       1.660296133927e+03 
       1.605722487124e-01       1.582820493864e+03 
       1.659423175673e-01       1.519708964361e+03 
       1.714917216915e-01       1.466840933388e+03 
       1.772266103333e-01       1.418043820628e+03 
       1.831532580783e-01       1.366972760018e+03 
       1.892780978817e-01       1.309333887565e+03 
       1.956077609488e-01       1.244574175152e+03 
       2.021491243302e-01       1.176089442755e+03 
       2.089093671573e-01       1.109625403912e+03 
       2.158960365494e-01       1.050574015012e+03 
       2.231171243733e-01       1.001508701019e+03 
       2.305811562642e-01       9.611197853471e+02 
       2.382972946218e-01       9.250289994560e+02 
       2.462754577268e-01       8.881993755009e+02 
       2.545264576921e-01       8.478077726633e+02 
       2.630621607235e-01       8.048020387143e+02 
       2.718956741725e-01       7.629059766265e+02 
       2.810415661947e-01       7.257236404086e+02 
       2.905161255911e-01       6.941446057982e+02 
       3.003376717645e-01       6.659578960987e+02 
       3.105269278910e-01       6.378997103861e+02 
       3.211074747136e-01       6.084717906747e+02 
       3.321063082881e-01       5.789837569238e+02 
       3.435545332838e-01       5.517874275724e+02 
       3.554882351398e-01       5.276459278783e+02 
       3.679495912192e-01       5.051211127321e+02 
       3.809883057490e-01       4.825339187222e+02 
       3.946634901029e-01       4.599750314455e+02 
       4.090461659755e-01       4.387153257963e+02 
       4.242226562155e-01       4.190530661444e+02 
       4.402992673792e-01       3.999929102255e+02 
       4.574088967924e-01       3.810663277268e+02 
       4.757205843212e-01       3.628537893491e+02 
       4.954537084960e-01       3.454087115972e+02 
       5.168997660760e-01       3.281485035027e+02 
       5.404570383203e-01       3.111275248614e+02 
       5.666881915394e-01       2.943358488558e+02 
       5.964209447922e-01       2.773970464741e+02 
       6.309348073719e-01       2.601921004599e+02 
       6.723324828871e-01       2.422898314021e+02 
       7.243387078089e-01       2.231703347007e+02 
       7.941506217963e-01       2.019419637953e+02 
       8.967555527353e-01       1.772686651387e+02 
       1.061500898177e+00       1.480132641171e+02 
       1.317130552688e+00       1.169010539730e+02 
       1.656952422090e+00       8.959446361571e+01 
       2.085963230641e+00       6.698421247544e+01 
       2.626072078993e+00       4.856561005897e+01 
       3.306028873434e+00       3.400490077025e+01 
       4.162043760891e+00       2.297930172865e+01 
       5.239702655586e+00       1.503161527173e+01 
       6.596394823362e+00       9.564989196794e+00 
       8.304369069358e+00       5.951720718033e+00 
       1.045458125033e+01       3.638830449627e+00 
