# Matter power spectrum P(k) at redshift z=0
# for k=2.0932e-07 to 10.5023 h/Mpc,
# number of wavenumbers equal to 139
#    1:k (h/Mpc)              2:P (Mpc/h)^3        
       2.093195838812e-07       1.211828086611e+00 
       2.635177433342e-07       1.510466207957e+00 
       3.317491835421e-07       1.882699526374e+00 
       4.176474775032e-07       2.346664550505e+00 
       5.257870226005e-07       2.924967277780e+00 
       6.619266439433e-07       3.645784636778e+00 
       8.333162728039e-07       4.544237364146e+00 
       1.049083031894e-06       5.664101206512e+00 
       1.320717287934e-06       7.059939821383e+00 
       1.662684555576e-06       8.799763296868e+00 
       2.093195838812e-06       1.096834181551e+01 
       2.635177433342e-06       1.367133590421e+01 
       3.317491835421e-06       1.704044448586e+01 
       4.176474775032e-06       2.123982151626e+01 
       5.257870226005e-06       2.647407375340e+01 
       6.619266439433e-06       3.299822915229e+01 
       8.333162728039e-06       4.113016121416e+01 
       1.049083031894e-05       5.126607391968e+01 
       1.320717287934e-05       6.389980030102e+01 
       1.662684555576e-05       7.964685211146e+01 
       2.093195838812e-05       9.927438679399e+01 
       2.635177433342e-05       1.237385408287e+02 
       3.317491835421e-05       1.542309267117e+02 
       4.176474775032e-05       1.922365161829e+02 
       5.257870226005e-05       2.396056455377e+02 
       6.619266439433e-05       2.986434852883e+02 
       8.333162728039e-05       3.722210079771e+02 
       1.049083031894e-04       4.639122254803e+02 
       1.320717287934e-04       5.781631510276e+02 
       1.662684555576e-04       7.204983579474e+02 
       2.093195838812e-04       8.977707537422e+02 
       2.635177433342e-04       1.118458593930e+03 
       3.317491835421e-04       1.393009909472e+03 
       4.176474775032e-04       1.734227612882e+03 
       5.257870226005e-04       2.157678729277e+03 
       6.619266439433e-04       2.682099359677e+03 
       8.333162728039e-04       3.329746743358e+03 
       1.049083031894e-03       4.126587649540e+03 
       1.320717287934e-03       5.102076405566e+03 
       1.662684555576e-03       6.288192008462e+03 
       2.093195838812e-03       7.717389199011e+03 
       2.635177433342e-03       9.418855875588e+03 
       3.317491835421e-03       1.141261092704e+04 
       4.176474775032e-03       1.370083089933e+04 
       5.257870226005e-03       1.625537858329e+04 
       6.619266439433e-03       1.900147160250e+04 
       8.333162728039e-03       2.179783155344e+04 
       1.049083031894e-02       2.441434188510e+04 
       1.320717287934e-02       2.651444895213e+04 
       1.662684555558e-02       2.766235639228e+04 
       2.093195770670e-02       2.740133694133e+04 
       2.635141330981e-02       2.547083267851e+04 
       3.313772126711e-02       2.217633341262e+04 
       4.082265910392e-02       1.883233823933e+04 
       4.685302913034e-02       1.692549975592e+04 
       5.132919617654e-02       1.588439170347e+04 
       5.509396857226e-02       1.518040555042e+04 
       5.849078606011e-02       1.462276889348e+04 
       6.167841671608e-02       1.412545779935e+04 
       6.474324501794e-02       1.364275836081e+04 
       6.773810342196e-02       1.314907985580e+04 
       7.069821903345e-02       1.263127710761e+04 
       7.364871630606e-02       1.208516844088e+04 
       7.660852587662e-02       1.151353758285e+04 
       7.959258646963e-02       1.092458404478e+04 
       8.261316384270e-02       1.033040512454e+04 
       8.568068083230e-02       9.745377943094e+03 
       8.880426122932e-02       9.184461229464e+03 
       9.199209820483e-02       8.661519918957e+03 
       9.525171084533e-02       8.187801448877e+03 
       9.859012685734e-02       7.770681768202e+03 
       1.020140150779e-01       7.412763246689e+03 
       1.055297829487e-01       7.111377335236e+03 
       1.091436489606e-01       6.858545520618e+03 
       1.128616968608e-01       6.641490033358e+03 
       1.166899163557e-01       6.443827627626e+03 
       1.206342337095e-01       6.247561235595e+03 
       1.247005347518e-01       6.035834228802e+03 
       1.288946822235e-01       5.796108586471e+03 
       1.332225290001e-01       5.523063305191e+03 
       1.376899284698e-01       5.220277661533e+03 
       1.423027431762e-01       4.899888271623e+03 
       1.470668527236e-01       4.579960897551e+03 
       1.519881618738e-01       4.280116397603e+03 
       1.570726097194e-01       4.016594770202e+03 
       1.623261807926e-01       3.798099833097e+03 
       1.677549189477e-01       3.623452522618e+03 
       1.733649448484e-01       3.481644620524e+03 
       1.791624778796e-01       3.354589362012e+03 
       1.851538633019e-01       3.222468123478e+03 
       1.913456054723e-01       3.070573225943e+03 
       1.977444079677e-01       2.895110117700e+03 
       2.043572214864e-01       2.704840997934e+03 
       2.111913004635e-01       2.517029161424e+03 
       2.182542694364e-01       2.349331236003e+03 
       2.255542003542e-01       2.211666129974e+03 
       2.330997022422e-01       2.101931246592e+03 
       2.409000249506e-01       2.007488411158e+03 
       2.489651791380e-01       1.912055469236e+03 
       2.573060752164e-01       1.804992952483e+03 
       2.659346847475e-01       1.687456844461e+03 
       2.748642287874e-01       1.570664794841e+03 
       2.841093990156e-01       1.467143290604e+03 
       2.936866192484e-01       1.381570946270e+03 
       3.036143573048e-01       1.308034366183e+03 
       3.139135003586e-01       1.235629025041e+03 
       3.246078112346e-01       1.158002622723e+03 
       3.357244890332e-01       1.078361945884e+03 
       3.472948657509e-01       1.004883126002e+03 
       3.593552822688e-01       9.414765185853e+02 
       3.719482039224e-01       8.840833157997e+02 
       3.851236604992e-01       8.264077267189e+02 
       3.989411322343e-01       7.677910026038e+02 
       4.134720592640e-01       7.127626703600e+02 
       4.288032389835e-01       6.633412998483e+02 
       4.450415145685e-01       6.162758671468e+02 
       4.623203856426e-01       5.692767545405e+02 
       4.808095573740e-01       5.244472487515e+02 
       5.007291192410e-01       4.826959287903e+02 
       5.223712743091e-01       4.418859030200e+02 
       5.461348817172e-01       4.021417562505e+02 
       5.725827664861e-01       3.640587086560e+02 
       6.025417041351e-01       3.264348092417e+02 
       6.372875094683e-01       2.894623556735e+02 
       6.789122849315e-01       2.523738998973e+02 
       7.311122973615e-01       2.146825427831e+02 
       8.010094181736e-01       1.755046238566e+02 
       9.034124516139e-01       1.341415022816e+02 
       1.067533986364e+00       9.184582482521e+01 
       1.323265637839e+00       5.590219356767e+01 
       1.664514475806e+00       3.254859388741e+01 
       2.095480190028e+00       1.873100979991e+01 
       2.638053210450e+00       1.068449864519e+01 
       3.321112224284e+00       6.046275111379e+00 
       4.181032574571e+00       3.396924463796e+00 
       5.263608155666e+00       1.895975561290e+00 
       6.626490064895e+00       1.051910090198e+00 
       8.342256733698e+00       5.804217683879e-01 
       1.050227899376e+01       3.186549054769e-01 
