# Matter power spectrum P(k) at redshift z=0.5
# for k=2.09431e-07 to 10.5075 h/Mpc,
# number of wavenumbers equal to 139
#    1:k (h/Mpc)              2:P (Mpc/h)^3        
       2.094311260887e-07       5.914242049286e-01 
       2.636581666537e-07       7.377328027322e-01 
       3.319259660274e-07       9.202357352706e-01 
       4.178700334662e-07       1.147886883914e+00 
       5.260672039579e-07       1.431855172249e+00 
       6.622793713741e-07       1.786072530853e+00 
       8.337603303300e-07       2.227917418800e+00 
       1.049642067198e-06       2.779067436731e+00 
       1.321421071684e-06       3.466562860895e+00 
       1.663570566823e-06       4.324133275515e+00 
       2.094311260887e-06       5.393852386739e+00 
       2.636581666537e-06       6.728202200743e+00 
       3.319259660274e-06       8.392647823923e+00 
       4.178700334662e-06       1.046884918881e+01 
       5.260672039579e-06       1.305866722703e+01 
       6.622793713741e-06       1.628916095039e+01 
       8.337603303300e-06       2.031882041846e+01 
       1.049642067198e-05       2.534534103569e+01 
       1.321421071684e-05       3.161531987898e+01 
       1.663570566823e-05       3.943634837222e+01 
       2.094311260887e-05       4.919209179825e+01 
       2.636581666537e-05       6.136108998776e+01 
       3.319259660274e-05       7.654019069962e+01 
       4.178700334662e-05       9.547374393695e+01 
       5.260672039579e-05       1.190899472341e+02 
       6.622793713741e-05       1.485460417898e+02 
       8.337603303300e-05       1.852844132324e+02 
       1.049642067198e-04       2.311020290720e+02 
       1.321421071684e-04       2.882359960303e+02 
       1.663570566823e-04       3.594682319970e+02 
       2.094311260887e-04       4.482521007768e+02 
       2.636581666537e-04       5.588629713491e+02 
       3.319259660274e-04       6.965724651652e+02 
       4.178700334662e-04       8.678420196565e+02 
       5.260672039579e-04       1.080525161195e+03 
       6.622793713741e-04       1.344060579548e+03 
       8.337603303300e-04       1.669630211440e+03 
       1.049642067198e-03       2.070236629549e+03 
       1.321421071684e-03       2.560586941604e+03 
       1.663570566823e-03       3.156570415735e+03 
       2.094311260887e-03       3.874137103965e+03 
       2.636581666537e-03       4.727340952009e+03 
       3.319259660274e-03       5.725287790375e+03 
       4.178700334662e-03       6.867708608021e+03 
       5.260672039579e-03       8.138695325235e+03 
       6.622793713741e-03       9.498648262819e+03 
       8.337603303300e-03       1.087471401334e+04 
       1.049642067198e-02       1.215029873782e+04 
       1.321421071684e-02       1.315730173660e+04 
       1.663570566811e-02       1.368089008680e+04 
       2.094311207751e-02       1.349933168447e+04 
       2.636551634964e-02       1.249144945868e+04 
       3.315998052284e-02       1.081656739191e+04 
       4.091870028659e-02       9.122602732248e+03 
       4.708055487490e-02       8.156628005355e+03 
       5.163280472348e-02       7.637775857939e+03 
       5.544844381032e-02       7.290513732384e+03 
       5.888484766832e-02       7.016735596714e+03 
       6.210613189630e-02       6.772862568648e+03 
       6.520115034708e-02       6.536026869182e+03 
       6.822405273723e-02       6.293602842978e+03 
       7.121084705107e-02       6.039248886084e+03 
       7.418715928393e-02       5.771111458485e+03 
       7.717226338124e-02       5.490789028041e+03 
       8.018134577352e-02       5.202527668627e+03 
       8.322685917875e-02       4.912439112406e+03 
       8.631937322950e-02       4.627678509018e+03 
       8.946813110541e-02       4.355594323215e+03 
       9.268142619302e-02       4.102903682018e+03 
       9.596686412044e-02       3.874955828072e+03 
       9.933154924294e-02       3.675139507121e+03 
       1.027822198177e-01       3.504470079763e+03 
       1.063253473940e-01       3.361377558459e+03 
       1.099672106600e-01       3.241718852647e+03 
       1.137139506880e-01       3.139058265007e+03 
       1.175716124147e-01       3.045281018158e+03 
       1.215461758228e-01       2.951594055609e+03 
       1.256435793871e-01       2.849888853531e+03 
       1.298697377476e-01       2.734288069301e+03 
       1.342305551727e-01       2.602520215924e+03 
       1.387319361114e-01       2.456663865757e+03 
       1.433797939556e-01       2.302882763377e+03 
       1.481800590248e-01       2.150059292516e+03 
       1.531386867113e-01       2.007625890503e+03 
       1.582616666806e-01       1.883190090360e+03 
       1.635550339923e-01       1.780597405126e+03 
       1.690248829904e-01       1.698902542318e+03 
       1.746773847996e-01       1.632506282794e+03 
       1.805188092552e-01       1.572579224459e+03 
       1.865555520932e-01       1.509696981429e+03 
       1.927941682280e-01       1.437115217278e+03 
       1.992414119648e-01       1.353433061026e+03 
       2.059042850247e-01       1.263179075937e+03 
       2.127900933240e-01       1.174690042924e+03 
       2.199065135514e-01       1.096188751829e+03 
       2.272616707365e-01       1.032017776867e+03 
       2.348642282273e-01       9.808066721217e+02 
       2.427234918055e-01       9.363822010126e+02 
       2.508495300932e-01       8.911478953550e+02 
       2.592533139763e-01       8.404165744247e+02 
       2.679468785342e-01       7.850748355152e+02 
       2.769435119722e-01       7.304999700934e+02 
       2.862579773860e-01       6.823698716882e+02 
       2.959067749550e-01       6.425442387267e+02 
       3.059084545194e-01       6.080625082244e+02 
       3.162839916619e-01       5.739299786650e+02 
       3.270572447201e-01       5.374695284201e+02 
       3.382555160739e-01       5.003497330174e+02 
       3.499102493000e-01       4.662592048022e+02 
       3.620579054501e-01       4.367623973041e+02 
       3.747410784697e-01       4.098903865477e+02 
       3.880099342831e-01       3.828932743535e+02 
       4.019240945801e-01       3.556329197765e+02 
       4.165551418555e-01       3.301267216917e+02 
       4.319900085964e-01       3.071350427091e+02 
       4.483356511577e-01       2.851836342673e+02 
       4.657256344493e-01       2.633590623041e+02 
       4.843296347903e-01       2.425935750123e+02 
       5.043675352400e-01       2.232005409882e+02 
       5.261310009383e-01       2.042672242888e+02 
       5.500177287597e-01       1.858756461933e+02 
       5.765881778617e-01       1.682334518144e+02 
       6.066643519812e-01       1.508381875886e+02 
       6.415122451933e-01       1.337518562685e+02 
       6.832028887954e-01       1.166388246026e+02 
       7.353847105600e-01       9.926965913657e+01 
       8.050651345025e-01       8.124532472867e+01 
       9.067893107205e-01       6.223740042785e+01 
       1.069468469745e+00       4.276611915145e+01 
       1.324086525572e+00       2.608041489829e+01 
       1.665352375760e+00       1.517912149486e+01 
       2.096531035562e+00       8.730644509259e+00 
       2.639376131970e+00       4.978086851844e+00 
       3.322777683796e+00       2.816230483002e+00 
       4.183129263873e+00       1.581905579021e+00 
       5.266247731110e+00       8.828345545208e-01 
       6.629813093497e+00       4.897908508346e-01 
       8.346440178850e+00       2.702657941136e-01 
       1.050754563917e+01       1.483919630541e-01 
