# Matter power spectrum P(k) at redshift z=1
# for k=2.08965e-07 to 10.4857 h/Mpc,
# number of wavenumbers equal to 139
#    1:k (h/Mpc)              2:P (Mpc/h)^3        
       2.089645153098e-07       5.553522455997e-01 
       2.630707384868e-07       6.893480193568e-01 
       3.311864377805e-07       8.556743858864e-01 
       4.169390225634e-07       1.062132092655e+00 
       5.248951306737e-07       1.318404056842e+00 
       6.608038185322e-07       1.636509495902e+00 
       8.319027193608e-07       2.031367631532e+00 
       1.047303473544e-06       2.521497403735e+00 
       1.318476956705e-06       3.129886011567e+00 
       1.659864145661e-06       3.885067014428e+00 
       2.089645153098e-06       4.822458554442e+00 
       2.630707384868e-06       5.986024460076e+00 
       3.311864377805e-06       7.430336129307e+00 
       4.169390225634e-06       9.223131878508e+00 
       5.248951306737e-06       1.144849376297e+01 
       6.608038185322e-06       1.421079080291e+01 
       8.319027193608e-06       1.763957344147e+01 
       1.047303473544e-05       2.189564854928e+01 
       1.318476956705e-05       2.717861946753e+01 
       1.659864145661e-05       3.373624381271e+01 
       2.089645153098e-05       4.187604622964e+01 
       2.630707384868e-05       5.197972732111e+01 
       3.311864377805e-05       6.452103785929e+01 
       4.169390225634e-05       8.008794348440e+01 
       5.248951306737e-05       9.941009365291e+01 
       6.608038185322e-05       1.233928326630e+02 
       8.319027193608e-05       1.531592489708e+02 
       1.047303473544e-04       1.901020420167e+02 
       1.318476956705e-04       2.359472641425e+02 
       1.659864145661e-04       2.928322038237e+02 
       2.089645153098e-04       3.633996838233e+02 
       2.630707384868e-04       4.509106143987e+02 
       3.311864377805e-04       5.593753833325e+02 
       4.169390225634e-04       6.937020826728e+02 
       5.248951306737e-04       8.598553145652e+02 
       6.608038185322e-04       1.065013778444e+03 
       8.319027193608e-04       1.317709238512e+03 
       1.047303473544e-03       1.627921116145e+03 
       1.318476956705e-03       2.007069391919e+03 
       1.659864145661e-03       2.467763603247e+03 
       2.089645153098e-03       3.023115424934e+03 
       2.630707384868e-03       3.685533703206e+03 
       3.311864377805e-03       4.464628937339e+03 
       4.169390225634e-03       5.364100878297e+03 
       5.248951306737e-03       6.377016457585e+03 
       6.608038185322e-03       7.479303557459e+03 
       8.319027193608e-03       8.621331545214e+03 
       1.047303473544e-02       9.717766308868e+03 
       1.318476956705e-02       1.063835331979e+04 
       1.659864145617e-02       1.120771694893e+04 
       2.089645016674e-02       1.123342554924e+04 
       2.630647099963e-02       1.059150158161e+04 
       3.306508366335e-02       9.381046487870e+03 
       4.051826697427e-02       8.130644346240e+03 
       4.618991945230e-02       7.409673475420e+03 
       5.045929312911e-02       6.995220160839e+03 
       5.408390143615e-02       6.706018701447e+03 
       5.737073577397e-02       6.473700867851e+03 
       6.046439982418e-02       6.266072951800e+03 
       6.344466112597e-02       6.065381953969e+03 
       6.636079232595e-02       5.861264939387e+03 
       6.924589672704e-02       5.648020747182e+03 
       7.212372781830e-02       5.423379007538e+03 
       7.501227389600e-02       5.187810960409e+03 
       7.792579134116e-02       4.944004565257e+03 
       8.087602928671e-02       4.696341562042e+03 
       8.387300378850e-02       4.450317981561e+03 
       8.692550695996e-02       4.211905670839e+03 
       9.004145291536e-02       3.986889099341e+03 
       9.322811925576e-02       3.780226824894e+03 
       9.649231940720e-02       3.595489739492e+03 
       9.984052781510e-02       3.434419954381e+03 
       1.032789721489e-01       3.296643329103e+03 
       1.068137018887e-01       3.179567015433e+03 
       1.104506396699e-01       3.078503207710e+03 
       1.141956198465e-01       2.987074133899e+03 
       1.180544174801e-01       2.897950109901e+03 
       1.220327701406e-01       2.803924001347e+03 
       1.261363943513e-01       2.699216550679e+03 
       1.303709981505e-01       2.580758418562e+03 
       1.347422909938e-01       2.449078561147e+03 
       1.392559920673e-01       2.308429217770e+03 
       1.439178379763e-01       2.165955244662e+03 
       1.487335907103e-01       2.030024557715e+03 
       1.537090467440e-01       1.908141672592e+03 
       1.588500481093e-01       1.805008735533e+03 
       1.641624962563e-01       1.721235858031e+03 
       1.696523695112e-01       1.653036898327e+03 
       1.753257449304e-01       1.593105348698e+03 
       1.811888253502e-01       1.532701741677e+03 
       1.872479724335e-01       1.464597953148e+03 
       1.935097465352e-01       1.385896272779e+03 
       1.999809542424e-01       1.299325306049e+03 
       2.066687045109e-01       1.212052048811e+03 
       2.135804744217e-01       1.132354623206e+03 
       2.207241857404e-01       1.065764546360e+03 
       2.281082936822e-01       1.012551220167e+03 
       2.357418896059e-01       9.677236943558e+02 
       2.436348197838e-01       9.237086535667e+02 
       2.517978229742e-01       8.746480524409e+02 
       2.602426902869e-01       8.199025479154e+02 
       2.689824518453e-01       7.641585956176e+02 
       2.780315960898e-01       7.137667662078e+02 
       2.874063293421e-01       6.720117930214e+02 
       2.971248856224e-01       6.368886453855e+02 
       3.072078999052e-01       6.030622354743e+02 
       3.176788623419e-01       5.665748988484e+02 
       3.285646769641e-01       5.282283809039e+02 
       3.398963567360e-01       4.921926031635e+02 
       3.517098986672e-01       4.612310724078e+02 
       3.640473997512e-01       4.338180149937e+02 
       3.769584994985e-01       4.063877895537e+02 
       3.905022721719e-01       3.779379847548e+02 
       4.047497487932e-01       3.508446854419e+02 
       4.197873378506e-01       3.267622393525e+02 
       4.357215558264e-01       3.041001370508e+02 
       4.526857126210e-01       2.811669482414e+02 
       4.708495941269e-01       2.590548740448e+02 
       4.904338825891e-01       2.386641664253e+02 
       5.117323331143e-01       2.186952621718e+02 
       5.351471700118e-01       1.990502242798e+02 
       5.612480924252e-01       1.803186169183e+02 
       5.908757946616e-01       1.616954744812e+02 
       6.253348662012e-01       1.433734410469e+02 
       6.667794637737e-01       1.249050347646e+02 
       7.190474841008e-01       1.060730019182e+02 
       7.896006044183e-01       8.640726735264e+01 
       8.940206827571e-01       6.558099310539e+01 
       1.062272814958e+00       4.442321319563e+01 
       1.320819186643e+00       2.688539210510e+01 
       1.661878589734e+00       1.565834769714e+01 
       2.092169978586e+00       9.014630811354e+00 
       2.633885927577e+00       5.141909119759e+00 
       3.315865925988e+00       2.908518616849e+00 
       4.174427876328e+00       1.632803291604e+00 
       5.255293333212e+00       9.103590244036e-01 
       6.616022323613e+00       5.043992741383e-01 
       8.329078628194e+00       2.778773526721e-01 
       1.048568874186e+01       1.522839112647e-01 
