# Matter power spectrum P(k) at redshift z=1.5
# for k=1.82241e-07 to 11.5105 h/Mpc,
# number of wavenumbers equal to 140
#    1:k (h/Mpc)              2:P (Mpc/h)^3        
       1.822414996638e-07       4.906454536581e-01 
       2.294284550103e-07       6.120230498085e-01 
       2.888333122011e-07       7.634274617891e-01 
       3.636195965027e-07       9.522868286149e-01 
       4.577699502636e-07       1.187866887888e+00 
       5.762982231426e-07       1.481725567251e+00 
       7.255164778860e-07       1.848280033781e+00 
       9.133711306861e-07       2.305514021239e+00 
       1.149866126820e-06       2.875860137275e+00 
       1.447595687215e-06       3.587300436072e+00 
       1.822414996638e-06       4.474739249976e+00 
       2.294284550103e-06       5.581715625533e+00 
       2.888333122011e-06       6.962539369911e+00 
       3.636195965027e-06       8.684955478481e+00 
       4.577699502636e-06       1.083346761909e+01 
       5.762982231426e-06       1.351348363842e+01 
       7.255164778860e-06       1.685648628693e+01 
       9.133711306861e-06       2.102648249971e+01 
       1.149866126820e-05       2.622804690047e+01 
       1.447595687215e-05       3.271635279200e+01 
       1.822414996638e-05       4.080967993466e+01 
       2.294284550103e-05       5.090500729451e+01 
       2.888333122011e-05       6.349744485899e+01 
       3.636195965027e-05       7.920443641777e+01 
       4.577699502636e-05       9.879587829460e+01 
       5.762982231426e-05       1.232315482453e+02 
       7.255164778860e-05       1.537075163385e+02 
       9.133711306861e-05       1.917134922936e+02 
       1.149866126820e-04       2.391032927422e+02 
       1.447595687215e-04       2.981806635415e+02 
       1.822414996638e-04       3.718023234979e+02 
       2.294284550103e-04       4.634988692190e+02 
       2.888333122011e-04       5.776113889997e+02 
       3.636195965027e-04       7.194363611435e+02 
       4.577699502636e-04       8.953630427743e+02 
       5.762982231426e-04       1.112977222515e+03 
       7.255164778860e-04       1.381097349108e+03 
       9.133711306861e-04       1.709705826544e+03 
       1.149866126820e-03       2.109711490073e+03 
       1.447595687215e-03       2.592356631463e+03 
       1.822414996638e-03       3.167951937704e+03 
       2.294284550103e-03       3.843847721520e+03 
       2.888333122011e-03       4.621658990854e+03 
       3.636195965027e-03       5.493499588670e+03 
       4.577699502636e-03       6.432996109781e+03 
       5.762982231426e-03       7.403631371932e+03 
       7.255164778860e-03       8.333352618631e+03 
       9.133711306861e-03       9.120338695928e+03 
       1.149866126820e-02       9.627691086498e+03 
       1.447595687212e-02       9.692526054930e+03 
       1.822414981596e-02       9.165269158992e+03 
       2.294273201475e-02       8.003456762583e+03 
       2.886773750646e-02       6.411071295330e+03 
       3.584642438201e-02       4.942921944681e+03 
       4.172314647294e-02       4.174539233900e+03 
       4.598637050267e-02       3.832453147209e+03 
       4.950311460206e-02       3.639155751366e+03 
       5.264358456719e-02       3.504204763508e+03 
       5.557288228952e-02       3.390055656344e+03 
       5.837842185650e-02       3.277629132228e+03 
       6.111262924141e-02       3.156546605206e+03 
       6.380994699263e-02       3.021692424268e+03 
       6.649465224743e-02       2.871740736293e+03 
       6.918485954431e-02       2.708317094212e+03 
       7.189474544977e-02       2.535315626175e+03 
       7.463586690726e-02       2.358196523233e+03 
       7.741798373333e-02       2.183230729558e+03 
       8.024959371650e-02       2.016730303762e+03 
       8.313829296688e-02       1.864339848359e+03 
       8.609102560984e-02       1.730462402821e+03 
       8.911426091317e-02       1.617865028534e+03 
       9.221412134691e-02       1.527466681701e+03 
       9.539647655713e-02       1.458275065753e+03 
       9.866701309150e-02       1.407432858279e+03 
       1.020312865174e-01       1.370370459944e+03 
       1.054947605396e-01       1.341123775242e+03 
       1.090628364034e-01       1.312921237926e+03 
       1.127408750018e-01       1.279115480251e+03 
       1.165342135273e-01       1.234402787606e+03 
       1.204481781252e-01       1.176067324958e+03 
       1.244880937503e-01       1.104819643008e+03 
       1.286592922598e-01       1.024808187843e+03 
       1.329671196675e-01       9.426406658342e+02 
       1.374169434143e-01       8.656630082022e+02 
       1.420141604652e-01       8.000674062332e+02 
       1.467642070203e-01       7.494162492961e+02 
       1.516725706031e-01       7.138901565107e+02 
       1.567448052855e-01       6.902759136165e+02 
       1.619865507950e-01       6.726730827016e+02 
       1.674035562501e-01       6.540220126217e+02 
       1.730017092700e-01       6.283973261550e+02 
       1.787870712176e-01       5.933620475335e+02 
       1.847659193634e-01       5.510817553926e+02 
       1.909447968082e-01       5.072587762761e+02 
       1.973305710875e-01       4.683143393206e+02 
       2.039305025114e-01       4.384128798375e+02 
       2.107523234806e-01       4.177915005196e+02 
       2.178043302895e-01       4.029088671735e+02 
       2.250954892887e-01       3.883021309414e+02 
       2.326355597780e-01       3.695961507863e+02 
       2.404352366539e-01       3.461160470629e+02 
       2.485063167092e-01       3.210639742331e+02 
       2.568618936323e-01       2.988947885430e+02 
       2.655165882800e-01       2.820140106806e+02 
       2.744868228263e-01       2.692971837747e+02 
       2.837911501200e-01       2.573087774963e+02 
       2.934506532798e-01       2.433062500354e+02 
       3.034894356306e-01       2.275630148620e+02 
       3.139352281450e-01       2.126555976581e+02 
       3.248201515073e-01       2.004812060258e+02 
       3.361816841906e-01       1.903520696364e+02 
       3.480639087474e-01       1.801519142818e+02 
       3.605191394184e-01       1.690665289498e+02 
       3.736100810038e-01       1.583406572306e+02 
       3.874127415248e-01       1.490791895586e+02 
       4.020204364471e-01       1.405949708850e+02 
       4.175494102547e-01       1.318619889079e+02 
       4.341469173286e-01       1.232939482748e+02 
       4.520031540614e-01       1.154991605878e+02 
       4.713694282136e-01       1.079279033145e+02 
       4.925868278824e-01       1.003671711703e+02 
       5.161333732572e-01       9.317384867172e+01 
       5.427054378237e-01       8.602048093209e+01 
       5.733666576554e-01       7.891812656729e+01 
       6.098392636000e-01       7.173860808644e+01 
       6.551195688655e-01       6.434708410052e+01 
       7.148830948322e-01       5.650845173771e+01 
       8.008043142281e-01       4.793878605092e+01 
       9.367023482962e-01       3.849436133134e+01 
       1.152968739420e+00       2.911783017592e+01 
       1.449116423702e+00       2.164205731804e+01 
       1.824284428195e+00       1.612128200646e+01 
       2.296637858305e+00       1.197098076560e+01 
       2.891295761422e+00       8.798334406252e+00 
       3.639925707067e+00       6.360432363209e+00 
       4.582394969669e+00       4.499943241555e+00 
       5.768893474194e+00       3.104652776853e+00 
       7.262606592596e+00       2.084420355754e+00 
       9.143079995284e+00       1.360914983474e+00 
       1.151045574813e+01       8.649655041414e-01 
