# Matter power spectrum P(k) at redshift z=1
# for k=2.09284e-07 to 10.5006 h/Mpc,
# number of wavenumbers equal to 139
#    1:k (h/Mpc)              2:P (Mpc/h)^3        
       2.092839492322e-07       4.842741319287e-01 
       2.634728819690e-07       6.027001105148e-01 
       3.316927064294e-07       7.500863646117e-01 
       4.175763770308e-07       9.335149344519e-01 
       5.256975124090e-07       1.161799725201e+00 
       6.618139572887e-07       1.445910022736e+00 
       8.331744087108e-07       1.799497576906e+00 
       1.048904435583e-06       2.239552579188e+00 
       1.320492448499e-06       2.787220054245e+00 
       1.662401499497e-06       3.468815892490e+00 
       2.092839492322e-06       4.317091343588e+00 
       2.634728819690e-06       5.372806725446e+00 
       3.316927064294e-06       6.686689959233e+00 
       4.175763770308e-06       8.321874025369e+00 
       5.256975124090e-06       1.035693042363e+01 
       6.618139572887e-06       1.288964434367e+01 
       8.331744087108e-06       1.604171281073e+01 
       1.048904435583e-05       1.996459131874e+01 
       1.320492448499e-05       2.484676938460e+01 
       1.662401499497e-05       3.092282367003e+01 
       2.092839492322e-05       3.848468177021e+01 
       2.634728819690e-05       4.789563415802e+01 
       3.316927064294e-05       5.960776017515e+01 
       4.175763770308e-05       7.418359085769e+01 
       5.256975124090e-05       9.232302083802e+01 
       6.618139572887e-05       1.148967061223e+02 
       8.331744087108e-05       1.429874419563e+02 
       1.048904435583e-04       1.779412926034e+02 
       1.320492448499e-04       2.214305084363e+02 
       1.662401499497e-04       2.755304387836e+02 
       2.092839492322e-04       3.428125796701e+02 
       2.634728819690e-04       4.264553088030e+02 
       3.316927064294e-04       5.303723165326e+02 
       4.175763770308e-04       6.593556816159e+02 
       5.256975124090e-04       8.192255990156e+02 
       6.618139572887e-04       1.016972512988e+03 
       8.331744087108e-04       1.260871510225e+03 
       1.048904435583e-03       1.560540615867e+03 
       1.320492448499e-03       1.926880921132e+03 
       1.662401499497e-03       2.371747475751e+03 
       2.092839492322e-03       2.907146488464e+03 
       2.634728819690e-03       3.543853664257e+03 
       3.316927064294e-03       4.289229269408e+03 
       4.175763770308e-03       5.143999563393e+03 
       5.256975124090e-03       6.085140552040e+03 
       6.618139572887e-03       7.103964362695e+03 
       8.331744087108e-03       8.139002537405e+03 
       1.048904435583e-02       9.104191247457e+03 
       1.320492448499e-02       9.874128506142e+03 
       1.662401499478e-02       1.028717869371e+04 
       2.092839418757e-02       1.017528701615e+04 
       2.634690613421e-02       9.445238070732e+03 
       3.313054073772e-02       8.215308627751e+03 
       4.079181137493e-02       6.977017336939e+03 
       4.678199504308e-02       6.273609026086e+03 
       5.123495986661e-02       5.887944054565e+03 
       5.498414731892e-02       5.626403382401e+03 
       5.836880205177e-02       5.419166676802e+03 
       6.154607545753e-02       5.234767253600e+03 
       6.460160247169e-02       5.056517944023e+03 
       6.758781454664e-02       4.875098742668e+03 
       7.053970055041e-02       4.685723701242e+03 
       7.348223165976e-02       4.486850074207e+03 
       7.643423344524e-02       4.279436997455e+03 
       7.941056873291e-02       4.066375807231e+03 
       8.242344593487e-02       3.851939212891e+03 
       8.548324281951e-02       3.641199979096e+03 
       8.859904649315e-02       3.439425487301e+03 
       9.177901931018e-02       3.251482934135e+03 
       9.503065372693e-02       3.081301231534e+03 
       9.836095384950e-02       2.931431038551e+03 
       1.017765671287e-01       2.802732213786e+03 
       1.052838812474e-01       2.694207396858e+03 
       1.088890961356e-01       2.602999277460e+03 
       1.125982778590e-01       2.524581831113e+03 
       1.164173990847e-01       2.453187879613e+03 
       1.203523694996e-01       2.382509819176e+03 
       1.244090586847e-01       2.306658292429e+03 
       1.285933133606e-01       2.221261879440e+03 
       1.329109705370e-01       2.124465305304e+03 
       1.373678678378e-01       2.017505046822e+03 
       1.419698521068e-01       1.904582519455e+03 
       1.467227872893e-01       1.791945652892e+03 
       1.516325625137e-01       1.686368391806e+03 
       1.567051012569e-01       1.593442362403e+03 
       1.619463724491e-01       1.516149223484e+03 
       1.673624043539e-01       1.454067354844e+03 
       1.729593020529e-01       1.403407921525e+03 
       1.787432693514e-01       1.357968208504e+03 
       1.847206359224e-01       1.310958929677e+03 
       1.908978905084e-01       1.257334013630e+03 
       1.972817210177e-01       1.195767580429e+03 
       2.038790623876e-01       1.129215179871e+03 
       2.106971531481e-01       1.063528016584e+03 
       2.177436017220e-01       1.004688074285e+03 
       2.250264636534e-01       9.560521290446e+02 
       2.325543311754e-01       9.169186023057e+02 
       2.403364368447e-01       8.830404932869e+02 
       2.483827733935e-01       8.489391813614e+02 
       2.567042325269e-01       8.110163435804e+02 
       2.653127661528e-01       7.696233913657e+02 
       2.742215745453e-01       7.284856256847e+02 
       2.834453272753e-01       6.917717255936e+02 
       2.930004245146e-01       6.610443698619e+02 
       3.029053086797e-01       6.343579215896e+02 
       3.131808395587e-01       6.081090077977e+02 
       3.238507503844e-01       5.801808386990e+02 
       3.349422082539e-01       5.515981278006e+02 
       3.464865105823e-01       5.250232700794e+02 
       3.585199610017e-01       5.017339469100e+02 
       3.710849849779e-01       4.804182830931e+02 
       3.842315700905e-01       4.590300558022e+02 
       3.980191527161e-01       4.373322909496e+02 
       4.125191288535e-01       4.167577648940e+02 
       4.278182540246e-01       3.979442736348e+02 
       4.440233363566e-01       3.798537832441e+02 
       4.612678553445e-01       3.617412398665e+02 
       4.797215253683e-01       3.442367080354e+02 
       4.996045004989e-01       3.276002562918e+02 
       5.212091518655e-01       3.111419999275e+02 
       5.449347017224e-01       2.948501003220e+02 
       5.713447146391e-01       2.788448851716e+02 
       6.012674591300e-01       2.626816897377e+02 
       6.359818265407e-01       2.462862788548e+02 
       6.775865304151e-01       2.292345168125e+02 
       7.297928719603e-01       2.110488695391e+02 
       7.997587238019e-01       1.908853408300e+02 
       9.023755018322e-01       1.674909848484e+02 
       1.066945699954e+00       1.397770624355e+02 
       1.323009939649e+00       1.102554423271e+02 
       1.664248648652e+00       8.436347482121e+01 
       2.095146638905e+00       6.300494263289e+01 
       2.637633298322e+00       4.566643835383e+01 
       3.320583586237e+00       3.198951094688e+01 
       4.180367058700e+00       2.163776310963e+01 
       5.262770320825e+00       1.416928977603e+01 
       6.625435293323e+00       9.025168896718e+00 
       8.340928854962e+00       5.620295432293e+00 
       1.050060729348e+01       3.438151687626e+00 
