# Matter power spectrum P(k) at redshift z=1.5
# for k=2.40086e-07 to 12.0456 h/Mpc,
# number of wavenumbers equal to 139
#    1:k (h/Mpc)              2:P (Mpc/h)^3        
       2.400859101650e-07       1.708190906164e-01 
       3.022502533205e-07       2.130769174475e-01 
       3.805105246263e-07       2.657886338588e-01 
       4.790343689072e-07       3.315403597847e-01 
       6.030685401401e-07       4.135579784058e-01 
       7.592183102360e-07       5.158654030708e-01 
       9.557992238555e-07       6.434819966326e-01 
       1.203279931485e-06       8.026688289337e-01 
       1.514839683248e-06       1.001235853889e+00 
       1.907070172035e-06       1.248925076917e+00 
       2.400859101650e-06       1.557888509969e+00 
       3.022502533205e-06       1.943284362278e+00 
       3.805105246263e-06       2.424020714647e+00 
       4.790343689072e-06       3.023683156840e+00 
       6.030685401401e-06       3.771691888344e+00 
       7.592183102360e-06       4.704745028951e+00 
       9.557992238555e-06       5.868618910576e+00 
       1.203279931485e-05       7.320413583178e+00 
       1.514839683248e-05       9.131353538644e+00 
       1.907070172035e-05       1.139028072670e+01 
       2.400859101650e-05       1.420801056291e+01 
       3.022502533205e-05       1.772276334655e+01 
       3.805105246263e-05       2.210693496342e+01 
       4.790343689072e-05       2.757553395090e+01 
       6.030685401401e-05       3.439668879040e+01 
       7.592183102360e-05       4.290472098851e+01 
       9.557992238555e-05       5.351638629656e+01 
       1.203279931485e-04       6.675100382730e+01 
       1.514839683248e-04       8.325531023833e+01 
       1.907070172035e-04       1.038339655013e+02 
       2.400859101650e-04       1.294866426334e+02 
       3.022502533205e-04       1.614524500000e+02 
       3.805105246263e-04       2.012618803451e+02 
       4.790343689072e-04       2.507952942435e+02 
       6.030685401401e-04       3.123448644673e+02 
       7.592183102360e-04       3.886739610806e+02 
       9.557992238555e-04       4.830649073974e+02 
       1.203279931485e-03       5.993436565770e+02 
       1.514839683248e-03       7.418632396319e+02 
       1.907070172035e-03       9.153985291140e+02 
       2.400859101650e-03       1.124857328284e+03 
       3.022502533205e-03       1.374739523847e+03 
       3.805105246263e-03       1.668304864729e+03 
       4.790343689072e-03       2.006343714328e+03 
       6.030685401401e-03       2.385430012318e+03 
       7.592183102360e-03       2.795645192949e+03 
       9.557992238555e-03       3.217891582674e+03 
       1.203279931485e-02       3.620945602285e+03 
       1.514839683248e-02       3.959212463761e+03 
       1.907070172020e-02       4.173584073972e+03 
       2.400859038339e-02       4.200912581884e+03 
       3.022467106679e-02       4.000324002509e+03 
       3.801288934339e-02       3.598999316800e+03 
       4.689523123377e-02       3.153600413567e+03 
       5.393612353348e-02       2.876165624132e+03 
       5.914152062509e-02       2.713278030753e+03 
       6.350695254578e-02       2.595844050741e+03 
       6.743962701938e-02       2.498416396639e+03 
       7.112673594929e-02       2.409657779109e+03 
       7.466970457222e-02       2.323706326524e+03 
       7.813037798027e-02       2.237421655368e+03 
       8.154989855687e-02       2.149310117068e+03 
       8.495755610012e-02       2.059018661641e+03 
       8.837538629798e-02       1.967035940395e+03 
       9.182075572515e-02       1.874465179630e+03 
       9.530790769550e-02       1.782815197617e+03 
       9.884893379817e-02       1.693790999900e+03 
       1.024544097788e-01       1.609084960591e+03 
       1.061338258971e-01       1.530177746330e+03 
       1.098958863592e-01       1.458161864883e+03 
       1.137487224427e-01       1.393601279379e+03 
       1.177000469947e-01       1.336438962994e+03 
       1.217572680376e-01       1.285964067203e+03 
       1.259275731822e-01       1.240850493047e+03 
       1.302179927791e-01       1.199279583830e+03 
       1.346354473366e-01       1.159155327174e+03 
       1.391867831646e-01       1.118405827203e+03 
       1.438787991773e-01       1.075339225335e+03 
       1.487182670959e-01       1.028988559099e+03 
       1.537119468418e-01       9.793542395560e+02 
       1.588665986023e-01       9.274537468948e+02 
       1.641889928554e-01       8.751265928119e+02 
       1.696859195100e-01       8.246146864386e+02 
       1.753641972352e-01       7.780129785707e+02 
       1.812306840033e-01       7.367330570300e+02 
       1.872922898372e-01       7.011227904668e+02 
       1.935559927345e-01       6.703511127611e+02 
       2.000288587240e-01       6.426167748858e+02 
       2.067180670050e-01       6.156748415435e+02 
       2.136309411129e-01       5.875727051359e+02 
       2.207749870615e-01       5.573566209049e+02 
       2.281579394292e-01       5.254341750431e+02 
       2.357878163959e-01       4.933685088775e+02 
       2.436729848106e-01       4.631480509560e+02 
       2.518222364811e-01       4.362642000119e+02 
       2.602448770586e-01       4.130409307407e+02 
       2.689508291384e-01       3.925399726336e+02 
       2.779507515591e-01       3.731043064271e+02 
       2.872561773702e-01       3.532912433850e+02 
       2.968796735912e-01       3.326778654805e+02 
       3.068350267643e-01       3.120071266412e+02 
       3.171374594544e-01       2.925492629239e+02 
       3.278038843814e-01       2.751408633470e+02 
       3.388532048961e-01       2.596172986095e+02 
       3.503066732125e-01       2.450490765976e+02 
       3.621883214427e-01       2.305689155133e+02 
       3.745254854188e-01       2.160718819166e+02 
       3.873494480717e-01       2.021488201092e+02 
       4.006962385994e-01       1.893565434965e+02 
       4.146076370371e-01       1.776232398681e+02 
       4.291324530709e-01       1.664179734525e+02 
       4.443281760591e-01       1.554207749158e+02 
       4.602631351144e-01       1.448250621035e+02 
       4.770193718206e-01       1.349142989318e+02 
       4.946965272546e-01       1.255965036411e+02 
       5.134172029971e-01       1.165992414737e+02 
       5.333345148171e-01       1.079088826506e+02 
       5.546429954947e-01       9.965175446933e+01 
       5.775947692948e-01       9.174749897432e+01 
       6.025243143945e-01       8.407905963616e+01 
       6.298877803492e-01       7.667400507347e+01 
       6.603281293599e-01       6.947692290633e+01 
       6.947885975922e-01       6.241260867897e+01 
       7.347223259681e-01       5.543332596652e+01 
       7.825073732890e-01       4.843807655716e+01 
       8.423349129200e-01       4.131060812086e+01 
       9.222587450364e-01       3.389109996559e+01 
       1.039000642464e+00       2.603600783608e+01 
       1.225760802396e+00       1.795448590853e+01 
       1.517872709371e+00       1.099890891541e+01 
       1.909120524627e+00       6.431618958926e+00 
       2.403414289237e+00       3.715020889320e+00 
       3.025719251768e+00       2.126304083721e+00 
       3.809154854979e+00       1.207011124842e+00 
       4.795441844392e+00       6.800778782395e-01 
       6.037103598686e+00       3.805979694885e-01 
       7.600263134020e+00       2.116887897007e-01 
       9.568164395741e+00       1.170805152434e-01 
       1.204560530202e+01       6.442147534953e-02 
