# Matter power spectrum P(k) at redshift z=0.5
# for k=2.09116e-07 to 10.4928 h/Mpc,
# number of wavenumbers equal to 139
#    1:k (h/Mpc)              2:P (Mpc/h)^3        
       2.091163404297e-07       6.896127101411e-01 
       2.632618749884e-07       8.602115254369e-01 
       3.314270643794e-07       1.073013674811e+00 
       4.172419535036e-07       1.338459567033e+00 
       5.252764981323e-07       1.669572395479e+00 
       6.612839317170e-07       2.082597076178e+00 
       8.325071460497e-07       2.597797248226e+00 
       1.048064401662e-06       3.240449438216e+00 
       1.319434908449e-06       4.042083163300e+00 
       1.661070135455e-06       5.042027812947e+00 
       2.091163404297e-06       6.289342198080e+00 
       2.632618749884e-06       7.845221429086e+00 
       3.314270643794e-06       9.785999195650e+00 
       4.172419535036e-06       1.220689272187e+01 
       5.252764981323e-06       1.522667408194e+01 
       6.612839317170e-06       1.899349696900e+01 
       8.325071460497e-06       2.369216460380e+01 
       1.048064401662e-05       2.955319499567e+01 
       1.319434908449e-05       3.686412761059e+01 
       1.661070135455e-05       4.598362474600e+01 
       2.091163404297e-05       5.735905668795e+01 
       2.632618749884e-05       7.154842790065e+01 
       3.314270643794e-05       8.924770914717e+01 
       4.172419535036e-05       1.113248950799e+02 
       5.252764981323e-05       1.388624160317e+02 
       6.612839317170e-05       1.732099015676e+02 
       8.325071460497e-05       2.160497211691e+02 
       1.048064401662e-04       2.694781974563e+02 
       1.319434908449e-04       3.361058532390e+02 
       1.661070135455e-04       4.191804076053e+02 
       2.091163404297e-04       5.227362649840e+02 
       2.632618749884e-04       6.517735655857e+02 
       3.314270643794e-04       8.124679071497e+02 
       4.172419535036e-04       1.012407942736e+03 
       5.252764981323e-04       1.260851935566e+03 
       6.612839317170e-04       1.568986795885e+03 
       8.325071460497e-04       1.950164241271e+03 
       1.048064401662e-03       2.420066822980e+03 
       1.319434908449e-03       2.996686341166e+03 
       1.661070135455e-03       3.699889609145e+03 
       2.091163404297e-03       4.550325087761e+03 
       2.632618749884e-03       5.567474874993e+03 
       3.314270643794e-03       6.766292154011e+03 
       4.172419535036e-03       8.152215509958e+03 
       5.252764981323e-03       9.679576730543e+03 
       6.612839317170e-03       1.136169813253e+04 
       8.325071460497e-03       1.309559518639e+04 
       1.048064401662e-02       1.474591828590e+04 
       1.319434908449e-02       1.610946383469e+04 
       1.661070135425e-02       1.691727775046e+04 
       2.091163300918e-02       1.688068243481e+04 
       2.632569622627e-02       1.582412831938e+04 
       3.309638783018e-02       1.391750129851e+04 
       4.064690068535e-02       1.196909028249e+04 
       4.646034851661e-02       1.085825998810e+04 
       5.081143105582e-02       1.023728144044e+04 
       5.449176828728e-02       9.812489138884e+03 
       5.782249550000e-02       9.475303252677e+03 
       6.095374577582e-02       9.175463862837e+03 
       6.396788342794e-02       8.885612541160e+03 
       6.691558354513e-02       8.589984712055e+03 
       6.983078858171e-02       8.280082114094e+03 
       7.273779497156e-02       7.952731698944e+03 
       7.565496492125e-02       7.608996804077e+03 
       7.859682600310e-02       7.253338305057e+03 
       8.157533297621e-02       6.892771960722e+03 
       8.460066401465e-02       6.535934750070e+03 
       8.768174357590e-02       6.192067127567e+03 
       9.082659724262e-02       5.869973866099e+03 
       9.404259917110e-02       5.577048769069e+03 
       9.733664854016e-02       5.318444563898e+03 
       1.007152976488e-01       5.096448091808e+03 
       1.041848462131e-01       4.910097087901e+03 
       1.077514114858e-01       4.755070234748e+03 
       1.114209807379e-01       4.623902419573e+03 
       1.151994506729e-01       4.506609796089e+03 
       1.190926570555e-01       4.391819415848e+03 
       1.231063969916e-01       4.268430454207e+03 
       1.272464457322e-01       4.127657555092e+03 
       1.315185694968e-01       3.965049020958e+03 
       1.359285355652e-01       3.781857424409e+03 
       1.404821207210e-01       3.585140081307e+03 
       1.451851190262e-01       3.386293536616e+03 
       1.500433498387e-01       3.198287771382e+03 
       1.550626669414e-01       3.032373150412e+03 
       1.602489696295e-01       2.895192244628e+03 
       1.656082165804e-01       2.787010059254e+03 
       1.711464433243e-01       2.701449727865e+03 
       1.768697841228e-01       2.626947203850e+03 
       1.827844990621e-01       2.550003406269e+03 
       1.888970071717e-01       2.459764339266e+03 
       1.952139263956e-01       2.352378474572e+03 
       2.017421212805e-01       2.232808185658e+03 
       2.084887593074e-01       2.112575106406e+03 
       2.154613768965e-01       2.004274108218e+03 
       2.226679562707e-01       1.915702953476e+03 
       2.301170145869e-01       1.846457613363e+03 
       2.378177070573e-01       1.788408643914e+03 
       2.457799462116e-01       1.730028647256e+03 
       2.540145400266e-01       1.662944208563e+03 
       2.625333524118e-01       1.586986954662e+03 
       2.713494905543e-01       1.509763089011e+03 
       2.804775249630e-01       1.440634734071e+03 
       2.899337498241e-01       1.383795821110e+03 
       2.997364936512e-01       1.335657298267e+03 
       3.099064933950e-01       1.288318006866e+03 
       3.204673495114e-01       1.236522279460e+03 
       3.314460854532e-01       1.182048951532e+03 
       3.428738433697e-01       1.130964561167e+03 
       3.547867595924e-01       1.086696644881e+03 
       3.672270804482e-01       1.046662510781e+03 
       3.802446037979e-01       1.006038391405e+03 
       3.938985687872e-01       9.639065715847e+02 
       4.082601728243e-01       9.235843273462e+02 
       4.234159828986e-01       8.869064233169e+02 
       4.394726491757e-01       8.515917190748e+02 
       4.565635602229e-01       8.156934345631e+02 
       4.748584715630e-01       7.806624139416e+02 
       4.945778280883e-01       7.473264190652e+02 
       5.160147589350e-01       7.140532239581e+02 
       5.395701264168e-01       6.807469330692e+02 
       5.658108403346e-01       6.478053939771e+02 
       5.955719338794e-01       6.141567952443e+02 
       6.301462652277e-01       5.796400354653e+02 
       6.716626279265e-01       5.432400413549e+02 
       7.239008865658e-01       5.037775849767e+02 
       7.941833021067e-01       4.591024084579e+02 
       8.977764236325e-01       4.058447929898e+02 
       1.064362907774e+00       3.405956293272e+02 
       1.321841311540e+00       2.685932297823e+02 
       1.663004670266e+00       2.030448674937e+02 
       2.093584830207e+00       1.476574013031e+02 
       2.635667111757e+00       1.030258364828e+02 
       3.318108304011e+00       6.917220405539e+01 
       4.177250863004e+00       4.496864145644e+01 
       5.258847262875e+00       2.849546384374e+01 
       6.620496455978e+00       1.770596642188e+01 
       8.334711227124e+00       1.084119312993e+01 
       1.049277976379e+01       6.566286914164e+00 
