# Matter power spectrum P(k) at redshift z=0
# for k=2.0895e-07 to 10.485 h/Mpc,
# number of wavenumbers equal to 139
#    1:k (h/Mpc)              2:P (Mpc/h)^3        
       2.089501154733e-07       9.753909557483e-01 
       2.630526101667e-07       1.220474539902e+00 
       3.311636155777e-07       1.527139546876e+00 
       4.169102911123e-07       1.910859357192e+00 
       5.248589599198e-07       2.390995301086e+00 
       6.607582822509e-07       2.991773571765e+00 
       8.318453925792e-07       3.743507604005e+00 
       1.047231303402e-06       4.684127595389e+00 
       1.318386099879e-06       5.861094343807e+00 
       1.659749763694e-06       7.333793965723e+00 
       2.089501154733e-06       9.176534320846e+00 
       2.630526101667e-06       1.148229432441e+01 
       3.311636155777e-06       1.436741531034e+01 
       4.169102911123e-06       1.797747112122e+01 
       5.248589599198e-06       2.249461304533e+01 
       6.607582822509e-06       2.814676007050e+01 
       8.318453925792e-06       3.521909789909e+01 
       1.047231303402e-05       4.406846640506e+01 
       1.318386099879e-05       5.514136043326e+01 
       1.659749763694e-05       6.899645013679e+01 
       2.089501154733e-05       8.633275305418e+01 
       2.630526101667e-05       1.080248712650e+02 
       3.311636155777e-05       1.351670554689e+02 
       4.169102911123e-05       1.691282874212e+02 
       5.248589599198e-05       2.116210969429e+02 
       6.607582822509e-05       2.647874612147e+02 
       8.318453925792e-05       3.313058754769e+02 
       1.047231303402e-04       4.145245167406e+02 
       1.318386099879e-04       5.186262834722e+02 
       1.659749763694e-04       6.488322344727e+02 
       2.089501154733e-04       8.116502724382e+02 
       2.630526101667e-04       1.015175305318e+03 
       3.311636155777e-04       1.269444828091e+03 
       4.169102911123e-04       1.586849153022e+03 
       5.248589599198e-04       1.982588197281e+03 
       6.607582822509e-04       2.475157012656e+03 
       8.318453925792e-04       3.086824728605e+03 
       1.047231303402e-03       3.844020102110e+03 
       1.318386099879e-03       4.777423775291e+03 
       1.659749763694e-03       5.921467847272e+03 
       2.089501154733e-03       7.312908966572e+03 
       2.630526101667e-03       8.987972225469e+03 
       3.311636155777e-03       1.097717058393e+04 
       4.169102911123e-03       1.323772372488e+04 
       5.248589599198e-03       1.584959429433e+04 
       6.607582822509e-03       1.871752820823e+04 
       8.318453925792e-03       2.171861977253e+04 
       1.047231303402e-02       2.463581711018e+04 
       1.318386099879e-02       2.713302604917e+04 
       1.659749763649e-02       2.875376631692e+04 
       2.089501014903e-02       2.899261822814e+04 
       2.630464710504e-02       2.751422096876e+04 
       3.306210672897e-02       2.455472906236e+04 
       4.050631796311e-02       2.146601869188e+04 
       4.616546373103e-02       1.970673520653e+04 
       5.042762542513e-02       1.872041629904e+04 
       5.404729185931e-02       1.805232012948e+04 
       5.733022291728e-02       1.752901011141e+04 
       6.042053869837e-02       1.706715045792e+04 
       6.339777875978e-02       1.661934241212e+04 
       6.631109227110e-02       1.615670243728e+04 
       6.919350849258e-02       1.566233281200e+04 
       7.206873292341e-02       1.512858015398e+04 
       7.495472076273e-02       1.455563066920e+04 
       7.786570435656e-02       1.395042370793e+04 
       8.081341459325e-02       1.332541811417e+04 
       8.380785312973e-02       1.269703331933e+04 
       8.685780031395e-02       1.208377311495e+04 
       8.997116034211e-02       1.150416471920e+04 
       9.315520221744e-02       1.097470985170e+04 
       9.641673172475e-02       1.050803906012e+04 
       9.976221636780e-02       1.011141025894e+04 
       1.031978773888e-01       9.785627104527e+03 
       1.067297582189e-01       9.524426777889e+03 
       1.103637757227e-01       9.314438045776e+03 
       1.141057586854e-01       9.135928760480e+03 
       1.179614767460e-01       8.964674035878e+03 
       1.219366621544e-01       8.775232605795e+03 
       1.260370261858e-01       8.545558051863e+03 
       1.302682716784e-01       8.262202618394e+03 
       1.346361029193e-01       7.924526142064e+03 
       1.391462339459e-01       7.546185449932e+03 
       1.438043962272e-01       7.152619932068e+03 
       1.486163466242e-01       6.774899093242e+03 
       1.535878764880e-01       6.441737919180e+03 
       1.587248227310e-01       6.172084629845e+03 
       1.640330816866e-01       5.970102823576e+03 
       1.695186265660e-01       5.823448295614e+03 
       1.751875293104e-01       5.705449679091e+03 
       1.810459876358e-01       5.581969952329e+03 
       1.871003580740e-01       5.422786997715e+03 
       1.933571958279e-01       5.214164385778e+03 
       1.998233022984e-01       4.965928217776e+03 
       2.065057812028e-01       4.707405700083e+03 
       2.134121043100e-01       4.473299958074e+03 
       2.205501879706e-01       4.287273236672e+03 
       2.279284818507e-01       4.151480248121e+03 
       2.355560715859e-01       4.046113159923e+03 
       2.434427975078e-01       3.939544553323e+03 
       2.515993921657e-01       3.806248877176e+03 
       2.600376401361e-01       3.642961195599e+03 
       2.687705646236e-01       3.470045341036e+03 
       2.778126466974e-01       3.315261143622e+03 
       2.871800847835e-01       3.193000412514e+03 
       2.968911044072e-01       3.094973486197e+03 
       3.069663313711e-01       2.998510652743e+03 
       3.174292459009e-01       2.886688327099e+03 
       3.283067412764e-01       2.763237490181e+03 
       3.396298188243e-01       2.646295088759e+03 
       3.514344629948e-01       2.547576415982e+03 
       3.637627573091e-01       2.460648656788e+03 
       3.766643269768e-01       2.370855379246e+03 
       3.901982313500e-01       2.274436050737e+03 
       4.044354863741e-01       2.181300642914e+03 
       4.194624861293e-01       2.097942231222e+03 
       4.353857348676e-01       2.018063197376e+03 
       4.523385351347e-01       1.935410670435e+03 
       4.704906751792e-01       1.854219066742e+03 
       4.900628580963e-01       1.777572145235e+03 
       5.113488946513e-01       1.700832960886e+03 
       5.347511308770e-01       1.623639169898e+03 
       5.608395160062e-01       1.547549486786e+03 
       5.904552532050e-01       1.469705773631e+03 
       6.249039888759e-01       1.389905106230e+03 
       6.663421699765e-01       1.305705014445e+03 
       7.186129444401e-01       1.214262407739e+03 
       7.891906186460e-01       1.110150461725e+03 
       8.936854779816e-01       9.842538656798e+02 
       1.062086345528e+00       8.253989312377e+02 
       1.320723554715e+00       6.427921507928e+02 
       1.661771492123e+00       4.720914883677e+02 
       2.092035373740e+00       3.305609238389e+02 
       2.633716470762e+00       2.224509540903e+02 
       3.315652592496e+00       1.451536092665e+02 
       4.174159305375e+00       9.256651590334e+01 
       5.254955222413e+00       5.805695869508e+01 
       6.615596667337e+00       3.598287277492e+01 
       8.328542758691e+00       2.211459943239e+01 
       1.048501412213e+01       1.351046688797e+01 
