# Matter power spectrum P(k) at redshift z=0.5
# for k=2.10294e-07 to 10.5505 h/Mpc,
# number of wavenumbers equal to 139
#    1:k (h/Mpc)              2:P (Mpc/h)^3        
       2.102943577615e-07       6.812483809202e-01 
       2.647449109429e-07       8.497779989552e-01 
       3.332940960292e-07       1.059999065721e+00 
       4.195924070921e-07       1.322225357884e+00 
       5.282355438841e-07       1.649322109929e+00 
       6.650091496086e-07       2.057337202567e+00 
       8.371969175179e-07       2.566288495806e+00 
       1.053968474139e-06       3.201145934970e+00 
       1.326867695324e-06       3.993056611622e+00 
       1.670427459732e-06       4.980872881202e+00 
       2.102943577615e-06       6.213058506153e+00 
       2.647449109429e-06       7.750066333757e+00 
       3.332940960292e-06       9.667304148758e+00 
       4.195924070921e-06       1.205883418148e+01 
       5.282355438841e-06       1.504198771517e+01 
       6.650091496086e-06       1.876312108373e+01 
       8.371969175179e-06       2.340479523682e+01 
       1.053968474139e-05       2.919473066908e+01 
       1.326867695324e-05       3.641697618876e+01 
       1.670427459732e-05       4.542583778167e+01 
       2.102943577615e-05       5.666324752641e+01 
       2.647449109429e-05       7.068041804193e+01 
       3.332940960292e-05       8.816483160784e+01 
       4.195924070921e-05       1.099738620118e+02 
       5.282355438841e-05       1.371766271458e+02 
       6.650091496086e-05       1.711060243347e+02 
       8.371969175179e-05       2.134233021238e+02 
       1.053968474139e-04       2.661979465542e+02 
       1.326867695324e-04       3.320060423248e+02 
       1.670427459732e-04       4.140504709280e+02 
       2.102943577615e-04       5.163060608362e+02 
       2.647449109429e-04       6.436916435970e+02 
       3.332940960292e-04       8.022682024943e+02 
       4.195924070921e-04       9.994571817818e+02 
       5.282355438841e-04       1.244265408557e+03 
       6.650091496086e-04       1.547494337856e+03 
       8.371969175179e-04       1.921902243525e+03 
       1.053968474139e-03       2.382264772150e+03 
       1.326867695324e-03       2.945199161970e+03 
       1.670427459732e-03       3.628498628883e+03 
       2.102943577615e-03       4.449755324691e+03 
       2.647449109429e-03       5.424012242241e+03 
       3.332940960292e-03       6.560144872443e+03 
       4.195924070921e-03       7.855747298248e+03 
       5.282355438841e-03       9.289979111371e+03 
       6.650091496086e-03       1.081456659446e+04 
       8.371969175179e-03       1.234339274560e+04 
       1.053968474139e-02       1.374135806348e+04 
       1.326867695324e-02       1.481667316103e+04 
       1.670427459725e-02       1.532751565906e+04 
       2.102943543627e-02       1.502815172253e+04 
       2.647427527672e-02       1.379079974937e+04 
       3.330363838756e-02       1.180686324950e+04 
       4.120968254597e-02       9.807694100491e+03 
       4.763330229540e-02       8.668082148789e+03 
       5.234122840545e-02       8.078086073397e+03 
       5.626250252585e-02       7.694640736705e+03 
       5.978218707884e-02       7.398023286106e+03 
       6.307501903602e-02       7.136229921008e+03 
       6.623475941332e-02       6.882345509620e+03 
       6.931818202777e-02       6.621642680493e+03 
       7.236285629671e-02       6.346784327512e+03 
       7.539541577630e-02       6.055671513650e+03 
       7.843582780432e-02       5.750211775400e+03 
       8.149978209383e-02       5.435366472587e+03 
       8.460011366557e-02       5.118227406379e+03 
       8.774769435457e-02       4.807051811602e+03 
       9.095201482253e-02       4.510273655897e+03 
       9.422157762650e-02       4.235556780100e+03 
       9.756417023021e-02       3.988964392997e+03 
       1.009870590475e-01       3.774306607189e+03 
       1.044971299487e-01       3.592699581164e+03 
       1.081009914900e-01       3.442350173962e+03 
       1.118050515693e-01       3.318581684688e+03 
       1.156155747546e-01       3.214144191446e+03 
       1.195387253216e-01       3.119885527362e+03 
       1.235805996055e-01       3.025855098574e+03 
       1.277472503252e-01       2.922826896161e+03 
       1.320447049138e-01       2.804050675605e+03 
       1.364789794666e-01       2.666827541181e+03 
       1.410560896453e-01       2.513379092438e+03 
       1.457820596901e-01       2.350566060911e+03 
       1.506629305766e-01       2.188346708487e+03 
       1.557047682773e-01       2.037324877802e+03 
       1.609136730400e-01       1.906079610714e+03 
       1.662957905693e-01       1.799008366827e+03 
       1.718573259744e-01       1.715191632137e+03 
       1.776045613367e-01       1.648529570902e+03 
       1.835438777429e-01       1.589270929713e+03 
       1.896817826216e-01       1.526882729559e+03 
       1.960249432313e-01       1.453683137316e+03 
       2.025802271564e-01       1.367869822600e+03 
       2.093547507059e-01       1.274272407350e+03 
       2.163559361684e-01       1.182065623589e+03 
       2.235915789777e-01       1.100429607122e+03 
       2.310699259946e-01       1.034353017828e+03 
       2.387997663319e-01       9.825535475429e+02 
       2.467905364609e-01       9.383882977478e+02 
       2.550524417613e-01       8.934774780028e+02 
       2.635965972505e-01       8.424652581587e+02 
       2.724351909905e-01       7.860756206746e+02 
       2.815816746800e-01       7.300842828232e+02 
       2.910509872721e-01       6.807897237636e+02 
       3.008598192307e-01       6.404421663033e+02 
       3.110269273896e-01       6.060021850056e+02 
       3.215735135510e-01       5.720371736752e+02 
       3.325236842559e-01       5.354572964636e+02 
       3.439050150676e-01       4.978932647598e+02 
       3.557492509332e-01       4.633438500552e+02 
       3.680931858092e-01       4.336698850320e+02 
       3.809797814169e-01       4.068857229702e+02 
       3.944596093570e-01       3.799789201115e+02 
       4.085927370577e-01       3.526468527557e+02 
       4.234512330769e-01       3.270247781996e+02 
       4.391225527544e-01       3.040548699534e+02 
       4.557142012574e-01       2.822308223202e+02 
       4.733602936047e-01       2.604864632567e+02 
       4.922310065827e-01       2.397645620686e+02 
       5.125465725660e-01       2.204904373288e+02 
       5.345986537866e-01       2.017115201216e+02 
       5.587841886933e-01       1.834505262106e+02 
       5.856612917444e-01       1.659841493245e+02 
       6.160462563013e-01       1.487852960593e+02 
       6.511919920670e-01       1.319190981804e+02 
       6.931394889551e-01       1.150654023872e+02 
       7.454658549429e-01       9.800535063582e+01 
       8.150027496310e-01       8.035264163878e+01 
       9.158817882339e-01       6.177966858561e+01 
       1.076530385248e+00       4.270502422047e+01 
       1.329827700060e+00       2.612732684701e+01 
       1.672163744943e+00       1.518654551234e+01 
       2.105096805643e+00       8.720190168803e+00 
       2.650159760640e+00       4.964540403484e+00 
       3.336353467940e+00       2.804696244923e+00 
       4.200220163518e+00       1.573460286565e+00 
       5.287763898983e+00       8.771254073632e-01 
       6.656900343997e+00       4.861201023162e-01 
       8.380541006839e+00       2.679863708282e-01 
       1.055047603809e+01       1.470124258146e-01 
