# Matter power spectrum P(k) at redshift z=2.5
# for k=1.73444e-07 to 10.956 h/Mpc,
# number of wavenumbers equal to 140
#    1:k (h/Mpc)              2:P (Mpc/h)^3        
       1.734439286456e-07       3.225371617289e-01 
       2.183529692934e-07       4.023275379096e-01 
       2.748901017842e-07       5.018567374289e-01 
       3.460661345868e-07       6.260078195157e-01 
       4.356714509927e-07       7.808718317487e-01 
       5.484778608479e-07       9.740466454419e-01 
       6.904927168280e-07       1.215009719244e+00 
       8.692788278735e-07       1.515583076905e+00 
       1.094357206345e-06       1.890513311852e+00 
       1.377714096647e-06       2.358195073706e+00 
       1.734439286456e-06       2.941573530507e+00 
       2.183529692934e-06       3.669270075382e+00 
       2.748901017842e-06       4.576986501189e+00 
       3.460661345868e-06       5.709256518935e+00 
       4.356714509927e-06       7.121630507619e+00 
       5.484778608479e-06       8.883400629092e+00 
       6.904927168280e-06       1.108099986673e+01 
       8.692788278735e-06       1.382224146760e+01 
       1.094357206345e-05       1.724160631653e+01 
       1.377714096647e-05       2.150683652247e+01 
       1.734439286456e-05       2.682715677464e+01 
       2.183529692934e-05       3.346352270027e+01 
       2.748901017842e-05       4.174139110727e+01 
       3.460661345868e-05       5.206662289495e+01 
       4.356714509927e-05       6.494526773104e+01 
       5.484778608479e-05       8.100814007103e+01 
       6.904927168280e-05       1.010412713458e+02 
       8.692788278735e-05       1.260234956451e+02 
       1.094357206345e-04       1.571725486691e+02 
       1.377714096647e-04       1.960010389715e+02 
       1.734439286456e-04       2.443832962133e+02 
       2.183529692934e-04       3.046330689396e+02 
       2.748901017842e-04       3.795897483665e+02 
       3.460661345868e-04       4.727064027093e+02 
       4.356714509927e-04       5.881256232026e+02 
       5.484778608479e-04       7.307194026402e+02 
       6.904927168280e-04       9.060608965036e+02 
       8.692788278735e-04       1.120296801572e+03 
       1.094357206345e-03       1.379895045999e+03 
       1.377714096647e-03       1.691193125272e+03 
       1.734439286456e-03       2.059504553887e+03 
       2.183529692934e-03       2.487576083290e+03 
       2.748901017842e-03       2.973687329726e+03 
       3.460661345868e-03       3.509320067612e+03 
       4.356714509927e-03       4.076135927119e+03 
       5.484778608479e-03       4.642955012910e+03 
       6.904927168280e-03       5.162820305607e+03 
       8.692788278735e-03       5.570743180278e+03 
       1.094357206345e-02       5.783806344751e+03 
       1.377714096647e-02       5.708535374033e+03 
       1.734439281319e-02       5.266323983837e+03 
       2.183524664274e-02       4.450552882007e+03 
       2.748046761082e-02       3.406451032335e+03 
       3.426575141701e-02       2.472458558172e+03 
       4.031080333202e-02       1.992230807801e+03 
       4.464964467221e-02       1.802666063712e+03 
       4.817448797291e-02       1.708357339426e+03 
       5.129690013153e-02       1.648649057599e+03 
       5.419583973246e-02       1.599800002070e+03 
       5.696413705353e-02       1.550137407887e+03 
       5.965665857655e-02       1.493473860727e+03 
       6.230905760702e-02       1.426906447218e+03 
       6.494624818778e-02       1.349903534642e+03 
       6.758668806270e-02       1.263777601953e+03 
       7.024473540454e-02       1.171235333995e+03 
       7.293203447827e-02       1.075901954201e+03 
       7.565837464297e-02       9.818101397317e+02 
       7.843224628896e-02       8.928941574638e+02 
       8.126121360845e-02       8.125487856130e+02 
       8.415217197666e-02       7.433041662838e+02 
       8.711153000038e-02       6.866412426695e+02 
       9.014534082903e-02       6.429338628096e+02 
       9.325939834169e-02       6.114732440307e+02 
       9.645930842339e-02       5.905290562304e+02 
       9.975054219983e-02       5.774328167654e+02 
       1.031384759775e-01       5.687257200602e+02 
       1.066284212626e-01       5.604565421919e+02 
       1.102256473303e-01       5.487049322225e+02 
       1.139353982157e-01       5.303123287742e+02 
       1.177629056006e-01       5.036549719314e+02 
       1.217133988049e-01       4.691700350408e+02 
       1.257921129145e-01       4.293532995903e+02 
       1.300042959676e-01       3.881291239242e+02 
       1.343552160446e-01       3.497783316201e+02 
       1.388501690653e-01       3.178178582844e+02 
       1.434944880646e-01       2.942020449709e+02 
       1.482935547047e-01       2.789858580719e+02 
       1.532528137647e-01       2.703747946968e+02 
       1.583777913451e-01       2.650971453105e+02 
       1.636741175171e-01       2.591923938395e+02 
       1.691475541509e-01       2.492719613712e+02 
       1.748040286645e-01       2.338884463084e+02 
       1.806496744623e-01       2.142190593765e+02 
       1.866908788769e-01       1.934614268083e+02 
       1.929343395092e-01       1.752066156938e+02 
       1.993871299781e-01       1.617723594355e+02 
       2.060567762719e-01       1.533280387750e+02 
       2.129513451417e-01       1.479997431266e+02 
       2.200795463237e-01       1.428362509823e+02 
       2.274508508400e-01       1.354076224167e+02 
       2.350756282534e-01       1.252631044115e+02 
       2.429653065703e-01       1.140850991932e+02 
       2.511325595778e-01       1.042799930147e+02 
       2.595915278400e-01       9.719015582214e+01 
       2.683580814980e-01       9.229200607449e+01 
       2.774501355885e-01       8.780268715833e+01 
       2.868880320788e-01       8.223311148392e+01 
       2.966950075868e-01       7.565091713114e+01 
       3.068977723778e-01       6.937564834280e+01 
       3.175272355491e-01       6.443986840893e+01 
       3.286194246547e-01       6.055886347951e+01 
       3.402166674074e-01       5.665965236450e+01 
       3.523691318365e-01       5.226959848704e+01 
       3.651368646904e-01       4.798079907114e+01 
       3.785925349476e-01       4.438899802293e+01 
       3.928251954256e-01       4.120400811184e+01 
       4.079455479482e-01       3.789675606423e+01 
       4.240934863081e-01       3.462928464979e+01 
       4.414491911701e-01       3.173011499428e+01 
       4.602499496812e-01       2.896714102443e+01 
       4.808165582324e-01       2.620593874766e+01 
       5.035964858944e-01       2.363233618122e+01 
       5.292378813187e-01       2.111946791762e+01 
       5.587237935420e-01       1.866434208709e+01 
       5.936322142220e-01       1.624710929920e+01 
       6.366795376462e-01       1.382962336580e+01 
       6.929492799879e-01       1.136310153103e+01 
       7.728011757991e-01       8.804164700337e+00 
       8.976858243237e-01       6.178722843591e+00 
       1.098491289603e+00       3.809427795003e+00 
       1.379346945582e+00       2.190092177306e+00 
       1.736411839551e+00       1.241477026696e+00 
       2.186012600109e+00       6.985796016574e-01 
       2.752026812508e+00       3.905065018130e-01 
       3.464596488205e+00       2.169838870821e-01 
       4.361668560615e+00       1.199043088181e-01 
       5.491015388782e+00       6.592449482466e-02 
       6.912778809490e+00       3.607746205725e-02 
       8.702672909379e+00       1.965861599189e-02 
       1.095601607615e+01       1.066907701292e-02 
