# Matter power spectrum P(k) at redshift z=1.5
# for k=2.05435e-07 to 10.3081 h/Mpc,
# number of wavenumbers equal to 139
#    1:k (h/Mpc)              2:P (Mpc/h)^3        
       2.054350643332e-07       3.080022782201e-01 
       2.586274229626e-07       3.841969639713e-01 
       3.255926349544e-07       4.792409586324e-01 
       4.098968420372e-07       5.977972703884e-01 
       5.160295506548e-07       7.456824584867e-01 
       6.496427145560e-07       9.301520026939e-01 
       8.178517219415e-07       1.160256268230e+00 
       1.029614315832e-06       1.447284530144e+00 
       1.296207626548e-06       1.805318840900e+00 
       1.631828720022e-06       2.251924916196e+00 
       2.054350643332e-06       2.809013929285e+00 
       2.586274229626e-06       3.503917495320e+00 
       3.255926349544e-06       4.370728580528e+00 
       4.098968420372e-06       5.451974108139e+00 
       5.160295506548e-06       6.800701301361e+00 
       6.496427145560e-06       8.483080075787e+00 
       8.178517219415e-06       1.058164907218e+01 
       1.029614315832e-05       1.319936439713e+01 
       1.296207626548e-05       1.646464936458e+01 
       1.631828720022e-05       2.053769228543e+01 
       2.054350643332e-05       2.561829990084e+01 
       2.586274229626e-05       3.195568903317e+01 
       3.255926349544e-05       3.986069146006e+01 
       4.098968420372e-05       4.972096014698e+01 
       5.160295506548e-05       6.201990187154e+01 
       6.496427145560e-05       7.736022367665e+01 
       8.178517219415e-05       9.649316681859e+01 
       1.029614315832e-04       1.203547023713e+02 
       1.296207626548e-04       1.501101512131e+02 
       1.631828720022e-04       1.872088092517e+02 
       2.054350643332e-04       2.334500881021e+02 
       2.586274229626e-04       2.910622029583e+02 
       3.255926349544e-04       3.627931880394e+02 
       4.098968420372e-04       4.520114899062e+02 
       5.160295506548e-04       5.628091363236e+02 
       6.496427145560e-04       7.000947698769e+02 
       8.178517219415e-04       8.696584697549e+02 
       1.029614315832e-03       1.078186455712e+03 
       1.296207626548e-03       1.333189192465e+03 
       1.631828720022e-03       1.642744549725e+03 
       2.054350643332e-03       2.014877283644e+03 
       2.586274229626e-03       2.456482035031e+03 
       3.255926349544e-03       2.971728286207e+03 
       4.098968420372e-03       3.559769168616e+03 
       5.160295506548e-03       4.205591715470e+03 
       6.496427145560e-03       4.897502252463e+03 
       8.178517219415e-03       5.593902142412e+03 
       1.029614315832e-02       6.236645064981e+03 
       1.296207626548e-02       6.744610229495e+03 
       1.631828719992e-02       7.017800653878e+03 
       2.054350539712e-02       6.957528945508e+03 
       2.586225245647e-02       6.515177655420e+03 
       3.251327723813e-02       5.768780257713e+03 
       3.992454773182e-02       5.015595783489e+03 
       4.562581143663e-02       4.572238142422e+03 
       4.989467545944e-02       4.308327317142e+03 
       5.350643996842e-02       4.115211317769e+03 
       5.677558119700e-02       3.953357357652e+03 
       5.984919874928e-02       3.805125383386e+03 
       6.280802477368e-02       3.661514138816e+03 
       6.570174440397e-02       3.517863193953e+03 
       6.856364429660e-02       3.372135952516e+03 
       7.141755563660e-02       3.224084637532e+03 
       7.428149164533e-02       3.074739491575e+03 
       7.716970556456e-02       2.926015045541e+03 
       8.009392766798e-02       2.780352951445e+03 
       8.306414593523e-02       2.640377233804e+03 
       8.608911876069e-02       2.508564465901e+03 
       8.917672293102e-02       2.386944540770e+03 
       9.233419630454e-02       2.276850456893e+03 
       9.556831086956e-02       2.178735615830e+03 
       9.888549838650e-02       2.092074965443e+03 
       1.022919428804e-01       2.015365061820e+03 
       1.057936494202e-01       1.946239161625e+03 
       1.093964955988e-01       1.881712967676e+03 
       1.131062701938e-01       1.818563226286e+03 
       1.169287022313e-01       1.753815960051e+03 
       1.208694828407e-01       1.685277193110e+03 
       1.249342817374e-01       1.611993686351e+03 
       1.291287598032e-01       1.534506395827e+03 
       1.334585789867e-01       1.454783280288e+03 
       1.379294105902e-01       1.375794984506e+03 
       1.425469429010e-01       1.300808790992e+03 
       1.473168890642e-01       1.232573375504e+03 
       1.522449960506e-01       1.172609947132e+03 
       1.573370555471e-01       1.120800682789e+03 
       1.625989175833e-01       1.075400697649e+03 
       1.680365076943e-01       1.033517557182e+03 
       1.736558484134e-01       9.919926132586e+02 
       1.794630858869e-01       9.484606859317e+02 
       1.854645224063e-01       9.022020394960e+02 
       1.916666556706e-01       8.543744986458e+02 
       1.980762256268e-01       8.074389368067e+02 
       2.047002697991e-01       7.639991981840e+02 
       2.115461881176e-01       7.256040494541e+02 
       2.186218184112e-01       6.920863310686e+02 
       2.259355239485e-01       6.617548558895e+02 
       2.334962947188e-01       6.323609178538e+02 
       2.413138645665e-01       6.023542273346e+02 
       2.493988468559e-01       5.716924916217e+02 
       2.577628920967e-01       5.416561116308e+02 
       2.664188719518e-01       5.137913775633e+02 
       2.753810953668e-01       4.887666814157e+02 
       2.846655642994e-01       4.659828512444e+02 
       2.942902788580e-01       4.441866582393e+02 
       3.042756047836e-01       4.225453779876e+02 
       3.146447204711e-01       4.012364029702e+02 
       3.254241665833e-01       3.810358183995e+02 
       3.366445294938e-01       3.623902512655e+02 
       3.483413013778e-01       3.449775349744e+02 
       3.605559764481e-01       3.281740659329e+02 
       3.733374672593e-01       3.117844758328e+02 
       3.867439614619e-01       2.961043974966e+02 
       4.008453949515e-01       2.813277788824e+02 
       4.157268039676e-01       2.672324614228e+02 
       4.314929571383e-01       2.535640216622e+02 
       4.482748960045e-01       2.403674869690e+02 
       4.662393983522e-01       2.277052839530e+02 
       4.856030560895e-01       2.154273408498e+02 
       5.066538967691e-01       2.034322698214e+02 
       5.297858416267e-01       1.917058097176e+02 
       5.555560446494e-01       1.801241060743e+02 
       5.847852776557e-01       1.685710779855e+02 
       6.187445252449e-01       1.568969089136e+02 
       6.595269851772e-01       1.448759040732e+02 
       7.108502212813e-01       1.321764867153e+02 
       7.799176847521e-01       1.182843275198e+02 
       8.817500186009e-01       1.024737340852e+02 
       1.045529722681e+00       8.433626706180e+01 
       1.298566532657e+00       6.595317059659e+01 
       1.633734780265e+00       5.053326472127e+01 
       2.056736685101e+00       3.812971870681e+01 
       2.589278046761e+00       2.814949660180e+01 
       3.259707931259e+00       2.022074807789e+01 
       4.103729149689e+00       1.407989674707e+01 
       5.166288909664e+00       9.488970222159e+00 
       6.503972393047e+00       6.198041888629e+00 
       8.188016123214e+00       3.938395453984e+00 
       1.030810156969e+01       2.445756424633e+00 
