# Matter power spectrum P(k) at redshift z=1
# for k=1.71763e-07 to 10.8486 h/Mpc,
# number of wavenumbers equal to 140
#    1:k (h/Mpc)              2:P (Mpc/h)^3        
       1.717629605693e-07       8.845219245932e-01 
       2.162367558656e-07       1.103338065952e+00 
       2.722259469232e-07       1.376285712731e+00 
       3.427121623313e-07       1.716756106358e+00 
       4.314490500898e-07       2.141453259975e+00 
       5.431621730525e-07       2.671213483032e+00 
       6.838006623812e-07       3.332027642015e+00 
       8.608540304734e-07       4.156316310635e+00 
       1.083751014808e-06       5.184520368817e+00 
       1.364361692600e-06       6.467085084909e+00 
       1.717629605693e-06       8.066935018898e+00 
       2.162367558656e-06       1.006256115683e+01 
       2.722259469232e-06       1.255187172036e+01 
       3.427121623313e-06       1.565699552936e+01 
       4.314490500898e-06       1.953027350404e+01 
       5.431621730525e-06       2.436173209952e+01 
       6.838006623812e-06       3.038840501423e+01 
       8.608540304734e-06       3.790595988347e+01 
       1.083751014808e-05       4.728319916011e+01 
       1.364361692600e-05       5.898014417644e+01 
       1.717629605693e-05       7.357058481956e+01 
       2.162367558656e-05       9.177019162234e+01 
       2.722259469232e-05       1.144715507567e+02 
       3.427121623313e-05       1.427878037138e+02 
       4.314490500898e-05       1.781069596403e+02 
       5.431621730525e-05       2.221594009610e+02 
       6.838006623812e-05       2.771016111335e+02 
       8.608540304734e-05       3.456196776031e+02 
       1.083751014808e-04       4.310565664414e+02 
       1.364361692600e-04       5.375673216787e+02 
       1.717629605693e-04       6.703058125149e+02 
       2.162367558656e-04       8.356447293192e+02 
       2.722259469232e-04       1.041426130019e+03 
       3.427121623313e-04       1.297231686840e+03 
       4.314490500898e-04       1.614649399440e+03 
       5.431621730525e-04       2.007499260024e+03 
       6.838006623812e-04       2.491969151812e+03 
       8.608540304734e-04       3.086595095823e+03 
       1.083751014808e-03       3.811932570511e+03 
       1.364361692600e-03       4.689543352757e+03 
       1.717629605693e-03       5.739891239212e+03 
       2.162367558656e-03       6.978989382595e+03 
       2.722259469232e-03       8.413350865694e+03 
       3.427121623313e-03       1.003312787424e+04 
       4.314490500898e-03       1.180224794224e+04 
       5.431621730525e-03       1.364655719546e+04 
       6.838006623812e-03       1.543954279626e+04 
       8.608540304734e-03       1.698731938776e+04 
       1.083751014808e-02       1.801878596144e+04 
       1.364361692595e-02       1.819948981624e+04 
       1.717629581012e-02       1.721050085864e+04 
       2.162351405238e-02       1.494729374791e+04 
       2.720282433003e-02       1.182201079301e+04 
       3.368297444136e-02       8.993701297269e+03 
       3.898043573211e-02       7.567242902056e+03 
       4.285544243218e-02       6.935704755726e+03 
       4.607758745893e-02       6.588922565182e+03 
       4.896718088446e-02       6.358255079291e+03 
       5.166912952185e-02       6.171174834420e+03 
       5.426100645773e-02       5.989287675351e+03 
       5.678970475256e-02       5.790486525357e+03 
       5.928621604716e-02       5.562715231231e+03 
       6.177248866107e-02       5.301409493159e+03 
       6.426496364677e-02       5.008124585157e+03 
       6.677655070326e-02       4.689412155758e+03 
       6.931780418735e-02       4.355578468353e+03 
       7.189765936973e-02       4.019236444752e+03 
       7.452391280025e-02       3.693724528101e+03 
       7.720354656430e-02       3.391559397644e+03 
       7.994295340594e-02       3.123111126954e+03 
       8.274809668015e-02       2.895640238456e+03 
       8.562462614274e-02       2.712738814766e+03 
       8.857796300271e-02       2.574113805369e+03 
       9.161336307163e-02       2.475595607025e+03 
       9.473596398636e-02       2.409302818915e+03 
       9.795082065899e-02       2.364034701923e+03 
       1.012629319245e-01       2.326125445391e+03 
       1.046772605763e-01       2.281038585951e+03 
       1.081987484635e-01       2.215783826338e+03 
       1.118323279756e-01       2.121791809751e+03 
       1.155829310151e-01       1.997377966025e+03 
       1.194554964051e-01       1.848707700926e+03 
       1.234549765808e-01       1.688534678413e+03 
       1.275863443559e-01       1.532880410348e+03 
       1.318546005097e-01       1.396775046301e+03 
       1.362647829231e-01       1.290531117842e+03 
       1.408219779711e-01       1.217517737794e+03 
       1.455313348715e-01       1.173549127006e+03 
       1.503980836831e-01       1.147679097241e+03 
       1.554275576413e-01       1.124624404681e+03 
       1.606252205253e-01       1.089244439691e+03 
       1.659966997589e-01       1.032323909915e+03 
       1.715478259781e-01       9.548890174390e+02 
       1.772846798468e-01       8.678710668804e+02 
       1.832136469818e-01       7.866258313841e+02 
       1.893414819747e-01       7.235028361129e+02 
       1.956753826763e-01       6.825666513377e+02 
       2.022230761636e-01       6.583589378153e+02 
       2.089929181559e-01       6.386862178525e+02 
       2.159940081135e-01       6.109852533068e+02 
       2.232363228767e-01       5.698982751727e+02 
       2.307308725230e-01       5.206448998512e+02 
       2.384898832128e-01       4.745848767979e+02 
       2.465270132355e-01       4.404605529288e+02 
       2.548576103911e-01       4.184294710004e+02 
       2.634990214266e-01       4.007362007074e+02 
       2.724709677530e-01       3.784380999056e+02 
       2.817960064866e-01       3.493782078958e+02 
       2.915001025638e-01       3.195627594290e+02 
       3.016133471496e-01       2.959772498753e+02 
       3.121708711565e-01       2.790424628560e+02 
       3.232140225325e-01       2.629771424644e+02 
       3.347919055025e-01       2.434613823850e+02 
       3.469634247556e-01       2.229941417385e+02 
       3.598000471367e-01       2.061791629531e+02 
       3.733896040692e-01       1.923617465856e+02 
       3.878416388807e-01       1.775789622458e+02 
       4.032951082218e-01       1.620451954776e+02 
       4.199297788152e-01       1.486579839030e+02 
       4.379836254282e-01       1.362323001693e+02 
       4.577803632357e-01       1.231940333467e+02 
       4.797748857726e-01       1.112346871452e+02 
       5.046320443455e-01       9.951189932340e+01 
       5.333714136670e-01       8.791478314040e+01 
       5.676520911653e-01       7.646519724931e+01 
       6.103780551071e-01       6.493402467703e+01 
       6.670873207030e-01       5.304018456935e+01 
       7.492247362501e-01       4.061101273508e+01 
       8.798769471264e-01       2.793524854738e+01 
       1.086242860064e+00       1.697599620436e+01 
       1.365775519471e+00       9.791083912527e+00 
       1.719380538139e+00       5.582233738185e+00 
       2.164571758473e+00       3.157839529987e+00 
       2.725034392352e+00       1.773797317043e+00 
       3.430615044545e+00       9.899694828611e-01 
       4.318888457661e+00       5.492682587993e-01 
       5.437158430054e+00       3.031131457440e-01 
       6.844976915546e+00       1.664443920372e-01 
       8.617315382125e+00       9.097874263405e-02 
       1.084855731600e+01       4.951712653230e-02 
