# Matter power spectrum P(k) at redshift z=0.5
# for k=2.09085e-07 to 10.4913 h/Mpc,
# number of wavenumbers equal to 139
#    1:k (h/Mpc)              2:P (Mpc/h)^3        
       2.090847868415e-07       6.370128869051e-01 
       2.632221513744e-07       7.956429484102e-01 
       3.313770553124e-07       9.937753446145e-01 
       4.171789958182e-07       1.241247015574e+00 
       5.251972391024e-07       1.550344513041e+00 
       6.611841505101e-07       1.936414006682e+00 
       8.323815289527e-07       2.418623194876e+00 
       1.047906259107e-06       3.020912947262e+00 
       1.319235818768e-06       3.773185925589e+00 
       1.660819496396e-06       4.712791195141e+00 
       2.090847868415e-06       5.886378530977e+00 
       2.632221513744e-06       7.352214478124e+00 
       3.313770553124e-06       9.183075142709e+00 
       4.171789958182e-06       1.146985931316e+01 
       5.251972391024e-06       1.432610125468e+01 
       6.611841505101e-06       1.789360714301e+01 
       8.323815289527e-06       2.234949480796e+01 
       1.047906259107e-05       2.791498595506e+01 
       1.319235818768e-05       3.486638673074e+01 
       1.660819496396e-05       4.354880045472e+01 
       2.090847868415e-05       5.439325074127e+01 
       2.632221513744e-05       6.793805996005e+01 
       3.313770553124e-05       8.485553420937e+01 
       4.171789958182e-05       1.059852594578e+02 
       5.251972391024e-05       1.323756220108e+02 
       6.611841505101e-05       1.653355359931e+02 
       8.323815289527e-05       2.064987910316e+02 
       1.047906259107e-04       2.579039110470e+02 
       1.319235818768e-04       3.220928963288e+02 
       1.660819496396e-04       4.022326054335e+02 
       2.090847868415e-04       5.022626184296e+02 
       2.632221513744e-04       6.270728459326e+02 
       3.313770553124e-04       7.827123520282e+02 
       4.171789958182e-04       9.766271935949e+02 
       5.251972391024e-04       1.217919251039e+03 
       6.611841505101e-04       1.517610731620e+03 
       8.323815289527e-04       1.888890310127e+03 
       1.047906259107e-03       2.347295538760e+03 
       1.319235818768e-03       2.910718295495e+03 
       1.660819496396e-03       3.599015201387e+03 
       2.090847868415e-03       4.432976050238e+03 
       2.632221513744e-03       5.432470198172e+03 
       3.313770553124e-03       6.613174815312e+03 
       4.171789958182e-03       7.981701234995e+03 
       5.251972391024e-03       9.528210381336e+03 
       6.611841505101e-03       1.121627149996e+04 
       8.323815289527e-03       1.296981024229e+04 
       1.047906259107e-02       1.465746069511e+04 
       1.319235818768e-02       1.607841059350e+04 
       1.660819496363e-02       1.696212842920e+04 
       2.090847758626e-02       1.701158643161e+04 
       2.632170155159e-02       1.603517345313e+04 
       3.308990192954e-02       1.418436622408e+04 
       4.061985188211e-02       1.226159453255e+04 
       4.640236525702e-02       1.115556455798e+04 
       5.073562655762e-02       1.053097304727e+04 
       5.440384888918e-02       1.009998466252e+04 
       5.772505319590e-02       9.755147267339e+03 
       6.084815880755e-02       9.446362127194e+03 
       6.385496157390e-02       9.146230116577e+03 
       6.679583018960e-02       8.838931361669e+03 
       6.970452405803e-02       8.515952301295e+03 
       7.260522132042e-02       8.174158064785e+03 
       7.551620280137e-02       7.814702075383e+03 
       7.845193710005e-02       7.442181275838e+03 
       8.142433429518e-02       7.063788150652e+03 
       8.444353735928e-02       6.688373366074e+03 
       8.751844203192e-02       6.325423368898e+03 
       9.065704972213e-02       5.984010792746e+03 
       9.386671365797e-02       5.671798747406e+03 
       9.715431444044e-02       5.394179515622e+03 
       1.005263875092e-01       5.153612595440e+03 
       1.039892169844e-01       4.949208779442e+03 
       1.075489054523e-01       4.776605577034e+03 
       1.112114262004e-01       4.628197815053e+03 
       1.149826624459e-01       4.493810546533e+03 
       1.188684368259e-01       4.361896483077e+03 
       1.228745335725e-01       4.221256104214e+03 
       1.270067152393e-01       4.063099195858e+03 
       1.312707354673e-01       3.883029629908e+03 
       1.356723490359e-01       3.682358948600e+03 
       1.402173202779e-01       3.468178950523e+03 
       1.449114308354e-01       3.251928384095e+03 
       1.497604876654e-01       3.046689414399e+03 
       1.547703321638e-01       2.863914611629e+03 
       1.599468512482e-01       2.710473328011e+03 
       1.652959912271e-01       2.586772455693e+03 
       1.708237752671e-01       2.486437131132e+03 
       1.765363252666e-01       2.397824906832e+03 
       1.824398889399e-01       2.307391304101e+03 
       1.885408729204e-01       2.204298721281e+03 
       1.948458827094e-01       2.084675187331e+03 
       2.013617703326e-01       1.953352448342e+03 
       2.080956906299e-01       1.821718798946e+03 
       2.150551672069e-01       1.702412610620e+03 
       2.222481692334e-01       1.603450883833e+03 
       2.296832004957e-01       1.524629759706e+03 
       2.373694024263e-01       1.457862253838e+03 
       2.453166732606e-01       1.391542815604e+03 
       2.535358060460e-01       1.317156328082e+03 
       2.620386489949e-01       1.234341798139e+03 
       2.708382926826e-01       1.150593268543e+03 
       2.799492899322e-01       1.075413190920e+03 
       2.893879160010e-01       1.013274125578e+03 
       2.991724790511e-01       9.606892088793e+02 
       3.093236940763e-01       9.095753435839e+02 
       3.198651377900e-01       8.543786796458e+02 
       3.308238079483e-01       7.967332608198e+02 
       3.422308189129e-01       7.428981243745e+02 
       3.541222770590e-01       6.966250538630e+02 
       3.665403966206e-01       6.553401940988e+02 
       3.795349414480e-01       6.138764518180e+02 
       3.931651153016e-01       5.710927125739e+02 
       4.075020799214e-01       5.305424955808e+02 
       4.226323683811e-01       4.943804753248e+02 
       4.386626023441e-01       4.601672305570e+02 
       4.557261538109e-01       4.256475648718e+02 
       4.739927853246e-01       3.924748085047e+02 
       4.936829934863e-01       3.617625216103e+02 
       5.150900429201e-01       3.316621338440e+02 
       5.386150898908e-01       3.021311786680e+02 
       5.648256450620e-01       2.738971672308e+02 
       5.945579591850e-01       2.458539236708e+02 
       6.291074097643e-01       2.182449785165e+02 
       6.706082289347e-01       1.904235058851e+02 
       7.228527070403e-01       1.620427964037e+02 
       7.931929343722e-01       1.323977612694e+02 
       8.969631489901e-01       1.009631701021e+02 
       1.063909567307e+00       6.885987274534e+01 
       1.321626521030e+00       4.192910667133e+01 
       1.662770912761e+00       2.453181884972e+01 
       2.093291201949e+00       1.418822115393e+01 
       2.635297457724e+00       8.131457231150e+00 
       3.317642937156e+00       4.622113781249e+00 
       4.176665000845e+00       2.607839570991e+00 
       5.258109706115e+00       1.461453827668e+00 
       6.619567927030e+00       8.139798559708e-01 
       8.333542278436e+00       4.508120274330e-01 
       1.049130814458e+01       2.483883660818e-01 
