# Matter power spectrum P(k) at redshift z=0.5
# for k=2.03594e-07 to 10.2143 h/Mpc,
# number of wavenumbers equal to 139
#    1:k (h/Mpc)              2:P (Mpc/h)^3        
       2.035937311942e-07       7.740927089098e-01 
       2.563093218824e-07       9.655904828844e-01 
       3.226743185974e-07       1.204461648467e+00 
       4.062228994157e-07       1.502425601042e+00 
       5.114043309271e-07       1.874100920579e+00 
       6.438199079057e-07       2.337722581719e+00 
       8.105212426815e-07       2.916036588338e+00 
       1.020385789211e-06       3.637415925747e+00 
       1.284589599871e-06       4.537252578015e+00 
       1.617202491004e-06       5.659693903624e+00 
       2.035937311942e-06       7.059808550902e+00 
       2.563093218824e-06       8.806288166776e+00 
       3.226743185974e-06       1.098481742894e+01 
       4.062228994157e-06       1.370227769351e+01 
       5.114043309271e-06       1.709199041012e+01 
       6.438199079057e-06       2.132025739192e+01 
       8.105212426815e-06       2.659451846962e+01 
       1.020385789211e-05       3.317352611054e+01 
       1.284589599871e-05       4.138003485558e+01 
       1.617202491004e-05       5.161662557539e+01 
       2.035937311942e-05       6.438543578280e+01 
       2.563093218824e-05       8.031275389726e+01 
       3.226743185974e-05       1.001796641732e+02 
       4.062228994157e-05       1.249602063863e+02 
       5.114043309271e-05       1.558688448928e+02 
       6.438199079057e-05       1.944194230685e+02 
       8.105212426815e-05       2.424981955921e+02 
       1.020385789211e-04       3.024539344737e+02 
       1.284589599871e-04       3.772083883406e+02 
       1.617202491004e-04       4.703903168360e+02 
       2.035937311942e-04       5.864955109183e+02 
       2.563093218824e-04       7.310729483496e+02 
       3.226743185974e-04       9.109325280999e+02 
       4.062228994157e-04       1.134361725861e+03 
       5.114043309271e-04       1.411327230275e+03 
       6.438199079057e-04       1.753626075935e+03 
       8.105212426815e-04       2.174941127737e+03 
       1.020385789211e-03       2.690727113025e+03 
       1.284589599871e-03       3.317742044296e+03 
       1.617202491004e-03       4.072891653386e+03 
       2.035937311942e-03       4.971188451662e+03 
       2.563093218824e-03       6.022666227756e+03 
       3.226743185974e-03       7.227967164098e+03 
       4.062228994157e-03       8.572788367023e+03 
       5.114043309271e-03       1.002126177555e+04 
       6.438199079057e-03       1.147484934042e+04 
       8.105212426815e-03       1.289049369727e+04 
       1.020385789211e-02       1.410944929035e+04 
       1.284589599871e-02       1.496416424114e+04 
       1.617202491001e-02       1.527075705411e+04 
       2.035937293831e-02       1.487132680407e+04 
       2.563079814235e-02       1.371711630823e+04 
       3.224929785757e-02       1.198157006855e+04 
       4.003114397758e-02       1.017898097654e+04 
       4.655763995281e-02       9.021756369166e+03 
       5.129710651221e-02       8.349238923057e+03 
       5.521096850921e-02       7.863649468503e+03 
       5.870808217945e-02       7.461720734305e+03 
       6.197113491776e-02       7.101779232561e+03 
       6.509699590453e-02       6.764394390680e+03 
       6.814382374744e-02       6.440291745152e+03 
       7.114985787135e-02       6.125662861958e+03 
       7.414206883393e-02       5.819925711404e+03 
       7.714059146510e-02       5.524424749720e+03 
       8.016119045659e-02       5.241534870520e+03 
       8.321672235619e-02       4.973967548904e+03 
       8.631804810973e-02       4.724207344107e+03 
       8.947462697019e-02       4.494061784800e+03 
       9.269491657889e-02       4.284328964243e+03 
       9.598665026279e-02       4.094594743746e+03 
       9.935703378524e-02       3.923173273840e+03 
       1.028128876177e-01       3.767202589940e+03 
       1.063607513565e-01       3.622904227387e+03 
       1.100069612033e-01       3.486004495853e+03 
       1.137577078840e-01       3.352290812137e+03 
       1.176190801208e-01       3.218239611332e+03 
       1.215970973087e-01       3.081607310394e+03 
       1.256977340842e-01       2.941844134155e+03 
       1.299269388311e-01       2.800193949729e+03 
       1.342906477460e-01       2.659400887824e+03 
       1.387947957980e-01       2.523046374021e+03 
       1.434453257347e-01       2.394656798112e+03 
       1.482481961623e-01       2.276804537821e+03 
       1.532093896542e-01       2.170441763336e+03 
       1.583349217894e-01       2.074655767440e+03 
       1.636308519983e-01       1.986937725210e+03 
       1.691032970673e-01       1.903931794492e+03 
       1.747584481474e-01       1.822482221013e+03 
       1.806025920985e-01       1.740648330844e+03 
       1.866421380002e-01       1.658289133024e+03 
       1.928836496612e-01       1.576932574519e+03 
       1.993338849733e-01       1.498949046977e+03 
       2.059998429884e-01       1.426399120889e+03 
       2.128888196522e-01       1.360101315539e+03 
       2.200084732266e-01       1.299356752834e+03 
       2.273669005739e-01       1.242439089235e+03 
       2.349727256918e-01       1.187570311258e+03 
       2.428352021830e-01       1.133829886043e+03 
       2.509643317542e-01       1.081462520707e+03 
       2.593710013917e-01       1.031426578200e+03 
       2.680671425932e-01       9.845486371605e+02 
       2.770659170112e-01       9.409117326837e+02 
       2.863819341491e-01       8.998851683435e+02 
       2.960315084554e-01       8.606830982651e+02 
       3.060329654323e-01       8.229325403102e+02 
       3.164070094241e-01       7.867745485594e+02 
       3.271771698843e-01       7.524915804820e+02 
       3.383703485980e-01       7.201012403894e+02 
       3.500174982248e-01       6.893218132205e+02 
       3.621544736700e-01       6.598596685629e+02 
       3.748231137531e-01       6.316259651051e+02 
       3.880726339294e-01       6.046497443466e+02 
       4.019614454071e-01       5.788775581835e+02 
       4.165595684348e-01       5.541532404080e+02 
       4.319518888011e-01       5.303483646736e+02 
       4.482426356550e-01       5.073999193764e+02 
       4.655616693898e-01       4.852265400478e+02 
       4.840735226301e-01       4.637048870274e+02 
       5.039907539243e-01       4.427188399033e+02 
       5.255942885944e-01       4.221509180322e+02 
       5.492655265518e-01       4.018499889772e+02 
       5.755391739887e-01       3.816368645766e+02 
       6.051945216193e-01       3.612853120664e+02 
       6.394224869689e-01       3.404890588359e+02 
       6.801526636739e-01       3.188089658351e+02 
       7.307448287779e-01       2.955737075130e+02 
       7.975687257383e-01       2.696959962889e+02 
       8.937353244539e-01       2.394277408312e+02 
       1.045957714685e+00       2.027283048446e+02 
       1.287976892439e+00       1.612784309104e+02 
       1.618893829041e+00       1.231287034874e+02 
       2.038018721127e+00       9.133897122922e+01 
       2.565713383870e+00       6.559339406402e+01 
       3.230041778246e+00       4.548882050519e+01 
       4.066381675790e+00       3.049967889495e+01 
       5.119271225707e+00       1.984887155012e+01 
       6.444780635909e+00       1.259974372148e+01 
       8.113498115985e+00       7.839264661401e+00 
       1.021428895676e+01       4.801282311227e+00 
