# Matter power spectrum P(k) at redshift z=1
# for k=2.09266e-07 to 10.4998 h/Mpc,
# number of wavenumbers equal to 139
#    1:k (h/Mpc)              2:P (Mpc/h)^3        
       2.092664083090e-07       6.123737018742e-01 
       2.634507992551e-07       7.588685097731e-01 
       3.316649059398e-07       9.404084683000e-01 
       4.175413782879e-07       1.165377236692e+00 
       5.256534516022e-07       1.444164050675e+00 
       6.617584880194e-07       1.789643505511e+00 
       8.331045770380e-07       2.217770114131e+00 
       1.048816522715e-06       2.748315097970e+00 
       1.320381772756e-06       3.405779434959e+00 
       1.662262166992e-06       4.220525328962e+00 
       2.092664083090e-06       5.230178349995e+00 
       2.634507992551e-06       6.481364992352e+00 
       3.316649059398e-06       8.031865884640e+00 
       4.175413782879e-06       9.953284064885e+00 
       5.256534516022e-06       1.233435151249e+01 
       6.617584880194e-06       1.528502655912e+01 
       8.331045770381e-06       1.894157125819e+01 
       1.048816522715e-05       2.347284290545e+01 
       1.320381772756e-05       2.908808971710e+01 
       1.662262166992e-05       3.604660957090e+01 
       2.092664083090e-05       4.466971575672e+01 
       2.634507992551e-05       5.535555812396e+01 
       3.316649059398e-05       6.859747589095e+01 
       4.175413782879e-05       8.500671357900e+01 
       5.256534516022e-05       1.053405175944e+02 
       6.617584880194e-05       1.305368492394e+02 
       8.331045770381e-05       1.617571966835e+02 
       1.048816522715e-04       2.004392280312e+02 
       1.320381772756e-04       2.483612615265e+02 
       1.662262166992e-04       3.077206536355e+02 
       2.092664083090e-04       3.812280581368e+02 
       2.634507992551e-04       4.722187995246e+02 
       3.316649059398e-04       5.847808750078e+02 
       4.175413782879e-04       7.238957854935e+02 
       5.256534516022e-04       8.955831655400e+02 
       6.617584880194e-04       1.107033724817e+03 
       8.331045770381e-04       1.366709158082e+03 
       1.048816522715e-03       1.684379531578e+03 
       1.320381772756e-03       2.071033601821e+03 
       1.662262166992e-03       2.538505084901e+03 
       2.092664083090e-03       3.098605416505e+03 
       2.634507992551e-03       3.761668537871e+03 
       3.316649059398e-03       4.534279140970e+03 
       4.175413782879e-03       5.415971451428e+03 
       5.256534516022e-03       6.381708367245e+03 
       6.617584880194e-03       7.421186438498e+03 
       8.331045770381e-03       8.469987069930e+03 
       1.048816522715e-02       9.439033793501e+03 
       1.320381772756e-02       1.019996750541e+04 
       1.662262166972e-02       1.058902012541e+04 
       2.092664006739e-02       1.043815758944e+04 
       2.634468721615e-02       9.658037237578e+03 
       3.312699464404e-02       8.375744730897e+03 
       4.077661339873e-02       7.097421843840e+03 
       4.674734410327e-02       6.373567612525e+03 
       5.118908399794e-02       5.975790166432e+03 
       5.493071926356e-02       5.705604669551e+03 
       5.830947434095e-02       5.491549514077e+03 
       6.148172089679e-02       5.301438409255e+03 
       6.453273185611e-02       5.118212283499e+03 
       6.751474479794e-02       4.932338251419e+03 
       7.046263332127e-02       4.738900460474e+03 
       7.340129439634e-02       4.536273851737e+03 
       7.634950270240e-02       4.325364469028e+03 
       7.932208428677e-02       4.109029339659e+03 
       8.233121976286e-02       3.891519160746e+03 
       8.538726504473e-02       3.677892800133e+03 
       8.849928944431e-02       3.473408510036e+03 
       9.167544036386e-02       3.282927122790e+03 
       9.492319733567e-02       3.110372227174e+03 
       9.824955300969e-02       2.958289247998e+03 
       1.016611444534e-01       2.827532658224e+03 
       1.051643497549e-01       2.717099649400e+03 
       1.087653598297e-01       2.624127962382e+03 
       1.124702321554e-01       2.544087295317e+03 
       1.162849311217e-01       2.471206377669e+03 
       1.202153583622e-01       2.399172238391e+03 
       1.242673755638e-01       2.322086792217e+03 
       1.284468216634e-01       2.235564502178e+03 
       1.327595259618e-01       2.137729920215e+03 
       1.372113184230e-01       2.029794795931e+03 
       1.418080382626e-01       1.915935101752e+03 
       1.465555418169e-01       1.802377712021e+03 
       1.514597106177e-01       1.695884595742e+03 
       1.565264605543e-01       1.602047197227e+03 
       1.617617529753e-01       1.523859018804e+03 
       1.671716085686e-01       1.460920303749e+03 
       1.727621248440e-01       1.409469792101e+03 
       1.785394980363e-01       1.363330774395e+03 
       1.845100502436e-01       1.315728545127e+03 
       1.906802626204e-01       1.261611158800e+03 
       1.970568154607e-01       1.199624306490e+03 
       2.036466360420e-01       1.132681774032e+03 
       2.104569551640e-01       1.066597275860e+03 
       2.174953734170e-01       1.007335930626e+03 
       2.247699383710e-01       9.582645567733e+02 
       2.322892340959e-01       9.187125338602e+02 
       2.400624847408e-01       8.844691024154e+02 
       2.480996743222e-01       8.500768857285e+02 
       2.564116854487e-01       8.119290701025e+02 
       2.650104604706e-01       7.703425511932e+02 
       2.739091895545e-01       7.290056305807e+02 
       2.831225315182e-01       6.920731018506e+02 
       2.926668750318e-01       6.611238305064e+02 
       3.025606501542e-01       6.342425354676e+02 
       3.128247033501e-01       6.078436373832e+02 
       3.234827534544e-01       5.797993875014e+02 
       3.345619519917e-01       5.511064351570e+02 
       3.460935795492e-01       5.244111928963e+02 
       3.581139216317e-01       5.010014525848e+02 
       3.706653843009e-01       4.795852242016e+02 
       3.837979345932e-01       4.581195974909e+02 
       3.975709875365e-01       4.363514846977e+02 
       4.120559176445e-01       4.157026879306e+02 
       4.273394600554e-01       3.968190147414e+02 
       4.435284058357e-01       3.786713162687e+02 
       4.607562246881e-01       3.605077736572e+02 
       4.791926354980e-01       3.429513394650e+02 
       4.990578238374e-01       3.262673694205e+02 
       5.206442427911e-01       3.097669228108e+02 
       5.443512917148e-01       2.934329364087e+02 
       5.707428959805e-01       2.773877173105e+02 
       6.006480527670e-01       2.611851557039e+02 
       6.353471556624e-01       2.447496974817e+02 
       6.769421481766e-01       2.276557922983e+02 
       7.291516812327e-01       2.094239178320e+02 
       7.991512329170e-01       1.892073962751e+02 
       9.018725598906e-01       1.657523984892e+02 
       1.066661260433e+00       1.379879929394e+02 
       1.322885112294e+00       1.084909320814e+02 
       1.664118044707e+00       8.272034209891e+01 
       2.094982734488e+00       6.155999115794e+01 
       2.637426956659e+00       4.447523929182e+01 
       3.320323817475e+00       3.107137268786e+01 
       4.180040029204e+00       2.097299665020e+01 
       5.262358615082e+00       1.371274255731e+01 
       6.624916986501e+00       8.724684861874e+00 
       8.340276345333e+00       5.429022316112e+00 
       1.049978583253e+01       3.319467342110e+00 
