# Matter power spectrum P(k) at redshift z=1
# for k=2.38003e-07 to 11.9441 h/Mpc,
# number of wavenumbers equal to 139
#    1:k (h/Mpc)              2:P (Mpc/h)^3        
       2.380028633016e-07       2.627548299515e-01 
       2.996278526901e-07       3.277560430616e-01 
       3.772091178329e-07       4.088374845649e-01 
       4.748781440003e-07       5.099771378282e-01 
       5.978361629876e-07       6.361370735802e-01 
       7.526311376746e-07       7.935068968248e-01 
       9.475064649261e-07       9.898074184488e-01 
       1.192839966535e-06       1.234669449945e+00 
       1.501696546074e-06       1.540106305263e+00 
       1.890523942656e-06       1.921103191430e+00 
       2.380028633016e-06       2.396352402999e+00 
       2.996278526901e-06       2.989170388588e+00 
       3.772091178329e-06       3.728641679538e+00 
       4.748781440003e-06       4.651045797240e+00 
       5.978361629876e-06       5.801637131163e+00 
       7.526311376746e-06       7.236865088827e+00 
       9.475064649261e-06       9.027143391709e+00 
       1.192839966535e-05       1.126030428204e+01 
       1.501696546074e-05       1.404590692442e+01 
       1.890523942656e-05       1.752061099022e+01 
       2.380028633016e-05       2.185487831112e+01 
       2.996278526901e-05       2.726132991274e+01 
       3.772091178329e-05       3.400516549001e+01 
       4.748781440003e-05       4.241715072333e+01 
       5.978361629876e-05       5.290979815335e+01 
       7.526311376746e-05       6.599751290686e+01 
       9.475064649261e-05       8.232164720740e+01 
       1.192839966535e-04       1.026816056578e+02 
       1.501696546074e-04       1.280733568809e+02 
       1.890523942656e-04       1.597369098815e+02 
       2.380028633016e-04       1.992144481943e+02 
       2.996278526901e-04       2.484207715830e+02 
       3.772091178329e-04       3.097272875193e+02 
       4.748781440003e-04       3.860597610447e+02 
       5.978361629876e-04       4.810081287912e+02 
       7.526311376746e-04       5.989439425833e+02 
       9.475064649261e-04       7.451378400325e+02 
       1.192839966535e-03       9.258647276110e+02 
       1.501696546074e-03       1.148468980059e+03 
       1.890523942656e-03       1.421321096148e+03 
       2.380028633016e-03       1.753548977706e+03 
       2.996278526901e-03       2.154501672832e+03 
       3.772091178329e-03       2.632705848607e+03 
       4.748781440003e-03       3.194180024787e+03 
       5.978361629876e-03       3.839773083044e+03 
       7.526311376746e-03       4.561248915901e+03 
       9.475064649261e-03       5.335956139604e+03 
       1.192839966535e-02       6.119994031597e+03 
       1.501696546074e-02       6.841154746910e+03 
       1.890523942549e-02       7.395881308841e+03 
       2.380028352204e-02       7.660961410526e+03 
       2.996172314098e-02       7.537615328735e+03 
       3.763783778242e-02       7.040321424931e+03 
       4.588115017221e-02       6.437026766984e+03 
       5.201711564104e-02       6.052246276767e+03 
       5.669456274023e-02       5.804494933227e+03 
       6.069626101965e-02       5.615672028877e+03 
       6.434018990108e-02       5.453920239944e+03 
       6.777855516965e-02       5.303510426474e+03 
       7.109630090032e-02       5.155562412442e+03 
       7.434634226399e-02       5.004869958714e+03 
       7.756446056249e-02       4.848625603841e+03 
       8.077646497918e-02       4.685823672514e+03 
       8.400198571716e-02       4.516914271361e+03 
       8.725663830493e-02       4.343530898141e+03 
       9.055333335095e-02       4.168214874098e+03 
       9.390310768720e-02       3.994106245795e+03 
       9.731567270193e-02       3.824596803409e+03 
       1.007997878918e-01       3.662960175787e+03 
       1.043635221824e-01       3.511983238636e+03 
       1.080144407482e-01       3.373628797228e+03 
       1.117597409144e-01       3.248761324215e+03 
       1.156063523514e-01       3.136967820260e+03 
       1.195610116568e-01       3.036507299834e+03 
       1.236303182122e-01       2.944423077073e+03 
       1.278207761406e-01       2.856848132053e+03 
       1.321388258489e-01       2.769515604433e+03 
       1.365908677498e-01       2.678444159469e+03 
       1.411832801684e-01       2.580705071759e+03 
       1.459224330444e-01       2.475108350054e+03 
       1.508146987793e-01       2.362604848523e+03 
       1.558664614100e-01       2.246226744549e+03 
       1.610841251768e-01       2.130494178948e+03 
       1.664741234865e-01       2.020377315099e+03 
       1.720429292279e-01       1.920054367357e+03 
       1.777970673675e-01       1.831789416137e+03 
       1.837431307396e-01       1.755244217300e+03 
       1.898877999293e-01       1.687464215752e+03 
       1.962378681412e-01       1.623657306641e+03 
       2.028002719456e-01       1.558686568408e+03 
       2.095821287981e-01       1.488894344838e+03 
       2.165907822515e-01       1.413562027665e+03 
       2.238338558209e-01       1.335253309836e+03 
       2.313193165385e-01       1.258700342267e+03 
       2.390555493540e-01       1.188637821042e+03 
       2.470514437181e-01       1.127593555419e+03 
       2.553164939435e-01       1.074717750821e+03 
       2.638609153017e-01       1.026288612849e+03 
       2.726957783026e-01       9.777798099152e+02 
       2.818331642659e-01       9.264848616160e+02 
       2.912863461684e-01       8.730819914821e+02 
       3.010699999095e-01       8.209420641748e+02 
       3.112004526717e-01       7.735538754153e+02 
       3.216959770859e-01       7.319517480761e+02 
       3.325771426270e-01       6.941055649635e+02 
       3.438672393277e-01       6.567842569967e+02 
       3.555927938826e-01       6.183886010696e+02 
       3.677842050904e-01       5.801692960617e+02 
       3.804765351955e-01       5.445813842870e+02 
       3.937105073309e-01       5.125137915522e+02 
       4.075337789445e-01       4.824634995846e+02 
       4.220025899798e-01       4.525669837803e+02 
       4.371839278157e-01       4.228959350059e+02 
       4.531584170325e-01       3.949153855389e+02 
       4.700242453710e-01       3.689997388508e+02 
       4.879026029182e-01       3.439604337910e+02 
       5.069453848723e-01       3.192372140662e+02 
       5.273463736095e-01       2.955941481356e+02 
       5.493579367942e-01       2.731064088470e+02 
       5.733167860587e-01       2.510230257332e+02 
       5.996852387816e-01       2.294976461279e+02 
       6.291202916960e-01       2.085532776836e+02 
       6.625954079291e-01       1.877494064793e+02 
       7.016287855787e-01       1.670700290507e+02 
       7.487428266770e-01       1.461026757103e+02 
       8.084650101898e-01       1.244917776600e+02 
       8.896666658542e-01       1.016964606520e+02 
       1.010923226448e+00       7.729790553249e+01 
       1.206991815171e+00       5.242589739651e+01 
       1.504270693675e+00       3.200046723913e+01 
       1.893015656498e+00       1.888216228285e+01 
       2.383157706309e+00       1.100769885926e+01 
       3.000217782510e+00       6.352897447808e+00 
       3.777050407316e+00       3.633426341173e+00 
       4.755024739397e+00       2.061164838308e+00 
       5.986221478137e+00       1.160637996377e+00 
       7.536206339455e+00       6.491778382640e-01 
       9.487521669264e+00       3.608883883944e-01 
       1.194408212438e+01       1.995043334235e-01 
