# Matter power spectrum P(k) at redshift z=0
# for k=2.09009e-07 to 10.4877 h/Mpc,
# number of wavenumbers equal to 139
#    1:k (h/Mpc)              2:P (Mpc/h)^3        
       2.090085401045e-07       1.068477692263e+00 
       2.631261624195e-07       1.334736260950e+00 
       3.312562123778e-07       1.667344951372e+00 
       4.170268635771e-07       2.082837836326e+00 
       5.250057159580e-07       2.601869185000e+00 
       6.609430371567e-07       3.250240191935e+00 
       8.320779852250e-07       4.060181560692e+00 
       1.047524120194e-06       5.071955698741e+00 
       1.318754734380e-06       6.335858168203e+00 
       1.660213847035e-06       7.914717883123e+00 
       2.090085401045e-06       9.887020332480e+00 
       2.631261624195e-06       1.235080907823e+01 
       3.312562123778e-06       1.542855945126e+01 
       4.170268635771e-06       1.927326668391e+01 
       5.250057159580e-06       2.407605104326e+01 
       6.609430371567e-06       3.007565787922e+01 
       8.320779852250e-06       3.757032454038e+01 
       1.047524120194e-05       4.693260349834e+01 
       1.318754734380e-05       5.862787740151e+01 
       1.660213847035e-05       7.323748420745e+01 
       2.090085401045e-05       9.148759750093e+01 
       2.631261624195e-05       1.142852888508e+02 
       3.312562123778e-05       1.427635474916e+02 
       4.170268635771e-05       1.783374608972e+02 
       5.250057159580e-05       2.227742811569e+02 
       6.609430371567e-05       2.782807264582e+02 
       8.320779852250e-05       3.476115947159e+02 
       1.047524120194e-04       4.342045742150e+02 
       1.318754734380e-04       5.423469531702e+02 
       1.660213847035e-04       6.773805927112e+02 
       2.090085401045e-04       8.459517167683e+02 
       2.631261624195e-04       1.056311238672e+03 
       3.312562123778e-04       1.318668710602e+03 
       4.170268635771e-04       1.645597790545e+03 
       5.250057159580e-04       2.052483257308e+03 
       6.609430371567e-04       2.557989390669e+03 
       8.320779852250e-04       3.184511353253e+03 
       1.047524120194e-03       3.958517399300e+03 
       1.318754734380e-03       4.910571856671e+03 
       1.660213847035e-03       6.074737325145e+03 
       2.090085401045e-03       7.486983704412e+03 
       2.631261624195e-03       9.182174609542e+03 
       3.312562123778e-03       1.118866313502e+04 
       4.170268635771e-03       1.352017175217e+04 
       5.250057159580e-03       1.616331153099e+04 
       6.609430371567e-03       1.906020754870e+04 
       8.320779852250e-03       2.208578218382e+04 
       1.047524120194e-02       2.502005410220e+04 
       1.318754734380e-02       2.752223784474e+04 
       1.660213846996e-02       2.912782744686e+04 
       2.090085274758e-02       2.931988817384e+04 
       2.631204676475e-02       2.775378526520e+04 
       3.307418079664e-02       2.466935826040e+04 
       4.055511429445e-02       2.143788578607e+04 
       4.626603041880e-02       1.957088410939e+04 
       5.055803791633e-02       1.850496277549e+04 
       5.419813093296e-02       1.776462942941e+04 
       5.749718386817e-02       1.717043480840e+04 
       6.060132285871e-02       1.663786580721e+04 
       6.359103226039e-02       1.612029598639e+04 
       6.651597257946e-02       1.559054198431e+04 
       6.940947952640e-02       1.503375566463e+04 
       7.229545713330e-02       1.444422421842e+04 
       7.519199746969e-02       1.382357218843e+04 
       7.811343224378e-02       1.317937235228e+04 
       8.107156774603e-02       1.252374254909e+04 
       8.407646512601e-02       1.187177705217e+04 
       8.713695333157e-02       1.123981476925e+04 
       9.026097751850e-02       1.064363834896e+04 
       9.345584219003e-02       1.009674356421e+04 
       9.672838467546e-02       9.608819283646e+03 
       1.000851011303e-01       9.184556465232e+03 
       1.035322393217e-01       8.822874470059e+03 
       1.070758676408e-01       8.516649412086e+03 
       1.107219267634e-01       8.253057786151e+03 
       1.144762684489e-01       8.014688456252e+03 
       1.183446847079e-01       7.781568446982e+03 
       1.223329297352e-01       7.534110601401e+03 
       1.264467364552e-01       7.256688311261e+03 
       1.306918291558e-01       6.941134293932e+03 
       1.350739334433e-01       6.589140345553e+03 
       1.395987845919e-01       6.212549310701e+03 
       1.442721352563e-01       5.831026822490e+03 
       1.490997634509e-01       5.467456515074e+03 
       1.540874816592e-01       5.142230621119e+03 
       1.592411479094e-01       4.867982410175e+03 
       1.645666796386e-01       4.646118270784e+03 
       1.700700711540e-01       4.466052644628e+03 
       1.757574154943e-01       4.307670337602e+03 
       1.816349314917e-01       4.147094963506e+03 
       1.877089968389e-01       3.964769552711e+03 
       1.939861879846e-01       3.753121382572e+03 
       2.004733277157e-01       3.519974098702e+03 
       2.071775413480e-01       3.285133968800e+03 
       2.141063225536e-01       3.071193575688e+03 
       2.212676100050e-01       2.893015114461e+03 
       2.286698762437e-01       2.750991916373e+03 
       2.363222304936e-01       2.631232002988e+03 
       2.442345375699e-01       2.513025294343e+03 
       2.524175556075e-01       2.380621197525e+03 
       2.608830961009e-01       2.232652664627e+03 
       2.696442107585e-01       2.082165103460e+03 
       2.787154110135e-01       1.946443880301e+03 
       2.881129278113e-01       1.834167091332e+03 
       2.978550216611e-01       1.739584479819e+03 
       3.079623561318e-01       1.648108964364e+03 
       3.184584523144e-01       1.549193513788e+03 
       3.293702477475e-01       1.445309021934e+03 
       3.407287916553e-01       1.347855421141e+03 
       3.525701201682e-01       1.264140033726e+03 
       3.649363722328e-01       1.189814177868e+03 
       3.778772318730e-01       1.115247444198e+03 
       3.914518197396e-01       1.037940210186e+03 
       4.057312137206e-01       9.644015470610e+02 
       4.208018670339e-01       8.989552827971e+02 
       4.367703340323e-01       8.372077697584e+02 
       4.537699471899e-01       7.747113518327e+02 
       4.719704845661e-01       7.144822793810e+02 
       4.915925627378e-01       6.588379196873e+02 
       5.129297623915e-01       6.042757870598e+02 
       5.363839271762e-01       5.506035179427e+02 
       5.625239751269e-01       4.993391873346e+02 
       5.921890127589e-01       4.483363114494e+02 
       6.266803344514e-01       3.980972551182e+02 
       6.681449626437e-01       3.474028101040e+02 
       7.204044482742e-01       2.956354014388e+02 
       7.908811720930e-01       2.414855582658e+02 
       8.950683925566e-01       1.839978387609e+02 
       1.062855384622e+00       1.253247422766e+02 
       1.321112823397e+00       7.630740568116e+01 
       1.662205604391e+00       4.469750144217e+01 
       2.092580941062e+00       2.588110506028e+01 
       2.634403296551e+00       1.484847697022e+01 
       3.316517254935e+00       8.448404751283e+00 
       4.175247850892e+00       4.770915136544e+00 
       5.256325620026e+00       2.675855530900e+00 
       6.617321895716e+00       1.491493257577e+00 
       8.330714692539e+00       8.266265072954e-01 
       1.048774842484e+01       4.557531409254e-01 
