# Matter power spectrum P(k) at redshift z=0
# for k=2.38779e-07 to 11.9804 h/Mpc,
# number of wavenumbers equal to 139
#    1:k (h/Mpc)              2:P (Mpc/h)^3        
       2.387794366237e-07       8.199781871705e-01 
       3.006055005795e-07       1.022827272029e+00 
       3.784399036046e-07       1.275857875685e+00 
       4.764276114848e-07       1.591484077918e+00 
       5.997868269786e-07       1.985190996712e+00 
       7.550868781428e-07       2.476294511512e+00 
       9.505980590063e-07       3.088888929500e+00 
       1.196732052885e-06       3.853029087334e+00 
       1.506596392486e-06       4.806204882994e+00 
       1.896692483818e-06       5.995180578227e+00 
       2.387794366237e-06       7.478289104140e+00 
       3.006055005795e-06       9.328293922407e+00 
       3.784399036046e-06       1.163595882732e+01 
       4.764276114848e-06       1.451450078709e+01 
       5.997868269786e-06       1.810514420228e+01 
       7.550868781428e-06       2.258404891697e+01 
       9.505980590063e-06       2.817095155542e+01 
       1.196732052885e-05       3.513994348677e+01 
       1.506596392486e-05       4.383291292419e+01 
       1.896692483818e-05       5.467630811239e+01 
       2.387794366237e-05       6.820203901780e+01 
       3.006055005795e-05       8.507353309381e+01 
       3.784399036046e-05       1.061182039165e+02 
       4.764276114848e-05       1.323678870868e+02 
       5.997868269786e-05       1.651091512576e+02 
       7.550868781428e-05       2.059458031775e+02 
       9.505980590063e-05       2.568763601908e+02 
       1.196732052885e-04       3.203897190136e+02 
       1.506596392486e-04       3.995826060239e+02 
       1.896692483818e-04       4.983024492194e+02 
       2.387794366237e-04       6.213186938023e+02 
       3.006055005795e-04       7.745236919159e+02 
       3.784399036046e-04       9.651603525475e+02 
       4.764276114848e-04       1.202067168927e+03 
       5.997868269786e-04       1.495922535802e+03 
       7.550868781428e-04       1.859460758830e+03 
       9.505980590063e-04       2.307616221866e+03 
       1.196732052885e-03       2.857498948610e+03 
       1.506596392486e-03       3.527990625404e+03 
       1.896692483818e-03       4.338710912496e+03 
       2.387794366237e-03       5.308157211642e+03 
       3.006055005795e-03       6.450611920465e+03 
       3.784399036046e-03       7.771596955596e+03 
       4.764276114848e-03       9.261866034837e+03 
       5.997868269786e-03       1.088975532577e+04 
       7.550868781428e-03       1.252720676690e+04 
       9.505980590063e-03       1.417517687040e+04 
       1.196732052885e-02       1.563890313547e+04 
       1.506596392486e-02       1.672169384244e+04 
       1.896692483817e-02       1.719325558432e+04 
       2.387794356849e-02       1.683557457535e+04 
       3.006046451154e-02       1.554676626914e+04 
       3.783028275153e-02       1.350181610312e+04 
       4.712311043896e-02       1.132235808487e+04 
       5.527391065359e-02       9.931839851179e+03 
       6.113739877983e-02       9.197216789975e+03 
       6.592133159705e-02       8.707360399832e+03 
       7.016868560279e-02       8.319210532339e+03 
       7.411717724657e-02       7.975367503991e+03 
       7.789081730921e-02       7.648425281902e+03 
       8.156319818955e-02       7.324694880369e+03 
       8.518228636070e-02       6.998202311121e+03 
       8.878168005761e-02       6.667950766462e+03 
       9.238631956203e-02       6.336346444178e+03 
       9.601563796489e-02       6.008049779000e+03 
       9.968541771819e-02       5.688981868387e+03 
       1.034089435698e-01       5.385406834506e+03 
       1.071977498034e-01       5.103094361406e+03 
       1.110621218777e-01       4.846600559442e+03 
       1.150114431251e-01       4.618706327473e+03 
       1.190544401721e-01       4.420043047344e+03 
       1.231993600751e-01       4.248921796279e+03 
       1.274541001377e-01       4.101383754954e+03 
       1.318263041433e-01       3.971497389162e+03 
       1.363234342436e-01       3.851941260400e+03 
       1.409528249016e-01       3.734896270950e+03 
       1.457217234349e-01       3.613211565252e+03 
       1.506373204983e-01       3.481691420991e+03 
       1.557067730351e-01       3.338214879128e+03 
       1.609372216932e-01       3.184322214897e+03 
       1.663358043445e-01       3.024967827316e+03 
       1.719096671099e-01       2.867373316944e+03 
       1.776659741431e-01       2.719232223707e+03 
       1.836119173250e-01       2.586759850578e+03 
       1.897547269619e-01       2.473122572340e+03 
       1.961016845418e-01       2.377639413895e+03 
       2.026601385798e-01       2.295954290961e+03 
       2.094375245663e-01       2.221221100122e+03 
       2.164413900212e-01       2.146159085596e+03 
       2.236794256539e-01       2.065491260655e+03 
       2.311595036277e-01       1.977856987396e+03 
       2.388897239451e-01       1.886200843265e+03 
       2.468784700025e-01       1.796249771021e+03 
       2.551344744312e-01       1.713749901827e+03 
       2.636668964477e-01       1.641847911666e+03 
       2.724854121044e-01       1.579858466146e+03 
       2.816003190760e-01       1.523923197592e+03 
       2.910226579651e-01       1.469229475085e+03 
       3.007643525826e-01       1.412681803884e+03 
       3.108383723056e-01       1.354452207083e+03 
       3.212589204693e-01       1.297343475830e+03 
       3.320416538868e-01       1.244450752226e+03 
       3.432039400898e-01       1.196916899477e+03 
       3.547651608745e-01       1.153398012925e+03 
       3.667470733785e-01       1.111461201046e+03 
       3.791742434669e-01       1.069651106919e+03 
       3.920745710139e-01       1.028420012185e+03 
       4.054799332522e-01       9.891786713644e+02 
       4.194269815205e-01       9.526168201271e+02 
       4.339581396237e-01       9.180957616404e+02 
       4.491228704765e-01       8.845765220651e+02 
       4.649793045463e-01       8.517842109962e+02 
       4.815963634223e-01       8.201745146984e+02 
       4.990565720362e-01       7.899800067019e+02 
       5.174598461378e-01       7.608274873358e+02 
       5.369286890377e-01       7.323389079564e+02 
       5.576154714540e-01       7.045364219890e+02 
       5.797128702971e-01       6.774352739741e+02 
       6.034692390771e-01       6.507827069424e+02 
       6.292119370881e-01       6.243739401167e+02 
       6.573840017162e-01       5.980772996748e+02 
       6.886041983811e-01       5.716165822453e+02 
       7.237701782600e-01       5.446630886508e+02 
       7.642459915012e-01       5.167771987106e+02 
       8.122263404776e-01       4.872946240051e+02 
       8.715000744890e-01       4.551891621398e+02 
       9.491810428748e-01       4.187540551280e+02 
       1.059805052628e+00       3.750989799451e+02 
       1.233368471929e+00       3.201625576565e+02 
       1.511771599976e+00       2.541457297312e+02 
       1.898849068478e+00       1.898357471195e+02 
       2.390413540328e+00       1.357660569162e+02 
       3.009351928848e+00       9.330755802791e+01 
       3.788549615987e+00       6.196017418042e+01 
       4.769501385409e+00       4.001404742258e+01 
       6.004446495679e+00       2.528573321507e+01 
       7.559150277169e+00       1.571678787552e+01 
       9.516406375499e+00       9.649179749358e+00 
       1.198044581508e+01       5.870203302882e+00 
