# Matter power spectrum P(k) at redshift z=1
# for k=2.31629e-07 to 11.6221 h/Mpc,
# number of wavenumbers equal to 139
#    1:k (h/Mpc)              2:P (Mpc/h)^3        
       2.316287924743e-07       2.946625649075e-01 
       2.916033729491e-07       3.675572255601e-01 
       3.671068963705e-07       4.584848233597e-01 
       4.621602006857e-07       5.719064095902e-01 
       5.818252209631e-07       7.133866258404e-01 
       7.324745558932e-07       8.898667140397e-01 
       9.221308319066e-07       1.110005064390e+00 
       1.160893937286e-06       1.384602009009e+00 
       1.461478878047e-06       1.727129701892e+00 
       1.839892898374e-06       2.154393081737e+00 
       2.316287924743e-06       2.687354343554e+00 
       2.916033729491e-06       3.352161366956e+00 
       3.671068963705e-06       4.181430553397e+00 
       4.621602006857e-06       5.215846998966e+00 
       5.818252209631e-06       6.506160493311e+00 
       7.324745558932e-06       8.115675232775e+00 
       9.221308319066e-06       1.012335532648e+01 
       1.160893937286e-05       1.262769830610e+01 
       1.461478878047e-05       1.575156640730e+01 
       1.839892898374e-05       1.964821207039e+01 
       2.316287924743e-05       2.450879218588e+01 
       2.916033729491e-05       3.057173753303e+01 
       3.671068963705e-05       3.813443274018e+01 
       4.621602006857e-05       4.756777122474e+01 
       5.818252209631e-05       5.933428225898e+01 
       7.324745558932e-05       7.401068605758e+01 
       9.221308319066e-05       9.231591786517e+01 
       1.160893937286e-04       1.151458668710e+02 
       1.461478878047e-04       1.436162825515e+02 
       1.839892898374e-04       1.791154649069e+02 
       2.316287924743e-04       2.233683866017e+02 
       2.916033729491e-04       2.785136271508e+02 
       3.671068963705e-04       3.471936580640e+02 
       4.621602006857e-04       4.326572376602e+02 
       5.818252209631e-04       5.388696656378e+02 
       7.324745558932e-04       6.706226346663e+02 
       9.221308319066e-04       8.336313241205e+02 
       1.160893937286e-03       1.034600874798e+03 
       1.461478878047e-03       1.281224001019e+03 
       1.839892898374e-03       1.582015678823e+03 
       2.316287924743e-03       1.945850988160e+03 
       2.916033729491e-03       2.381113175585e+03 
       3.671068963705e-03       2.894313810328e+03 
       4.621602006857e-03       3.487985256527e+03 
       5.818252209631e-03       4.157612511731e+03 
       7.324745558932e-03       4.887493285504e+03 
       9.221308319066e-03       5.645617783510e+03 
       1.160893937286e-02       6.377752883909e+03 
       1.461478878047e-02       7.002421952858e+03 
       1.839892898346e-02       7.411370837589e+03 
       2.316287824807e-02       7.486279895371e+03 
       2.915984522692e-02       7.148049516327e+03 
       3.666293196038e-02       6.445052427537e+03 
       4.507372299856e-02       5.674201666985e+03 
       5.158860239467e-02       5.205081503774e+03 
       5.645128535152e-02       4.927560322549e+03 
       6.055683398980e-02       4.727225764660e+03 
       6.426872825217e-02       4.561167583037e+03 
       6.775627551536e-02       4.409687481812e+03 
       7.111210965564e-02       4.262299822587e+03 
       7.439311350859e-02       4.113199046446e+03 
       7.763733110254e-02       3.959484224576e+03 
       8.087196250836e-02       3.800328495964e+03 
       8.411754407136e-02       3.636491457807e+03 
       8.739030978325e-02       3.469942918977e+03 
       9.070360889909e-02       3.303503750573e+03 
       9.406879969222e-02       3.140470742987e+03 
       9.749583594436e-02       2.984227454507e+03 
       1.009936647269e-01       2.837858430547e+03 
       1.045705036571e-01       2.703794729390e+03 
       1.082340385229e-01       2.583516936843e+03 
       1.119915667088e-01       2.477340943043e+03 
       1.158501027508e-01       2.384309548734e+03 
       1.198164568144e-01       2.302213589264e+03 
       1.238972934271e-01       2.227769804838e+03 
       1.280991755847e-01       2.156979977650e+03 
       1.324285979074e-01       2.085674993703e+03 
       1.368920115715e-01       2.010202401051e+03 
       1.414958431112e-01       1.928148022120e+03 
       1.462465087613e-01       1.838917724509e+03 
       1.511504257349e-01       1.743983212463e+03 
       1.562140216438e-01       1.646648831029e+03 
       1.614437431544e-01       1.551328403726e+03 
       1.668460648936e-01       1.462482207360e+03 
       1.724274995734e-01       1.383486005024e+03 
       1.781946102755e-01       1.315732118132e+03 
       1.841540258138e-01       1.258208155551e+03 
       1.903124600861e-01       1.207708084439e+03 
       1.966767363118e-01       1.159720511165e+03 
       2.032538170555e-01       1.109861267648e+03 
       2.100508409357e-01       1.055443409971e+03 
       2.170751669407e-01       9.965349196880e+02 
       2.243344273117e-01       9.359069968224e+02 
       2.318365900211e-01       8.777573961191e+02 
       2.395900319912e-01       8.257604368549e+02 
       2.476036243668e-01       7.813820046214e+02 
       2.558868314034e-01       7.432709382855e+02 
       2.644498248812e-01       7.080530845697e+02 
       2.733036164250e-01       6.722190861839e+02 
       2.824602107507e-01       6.341326246595e+02 
       2.919327837008e-01       5.948754869361e+02 
       3.017358900534e-01       5.572571852749e+02 
       3.118857075690e-01       5.236652612243e+02 
       3.224003257023e-01       4.943608771189e+02 
       3.333000900235e-01       4.674875553382e+02 
       3.446080169202e-01       4.407596690307e+02 
       3.563502979369e-01       4.134113523312e+02 
       3.685569197093e-01       3.866168096487e+02 
       3.812624346432e-01       3.619913409352e+02 
       3.945069305179e-01       3.398072813566e+02 
       4.083372659320e-01       3.188722936406e+02 
       4.228086659504e-01       2.981053713191e+02 
       4.379868132501e-01       2.777708782808e+02 
       4.539506324169e-01       2.587598620676e+02 
       4.707960621965e-01       2.411041140531e+02 
       4.886412656980e-01       2.240502609255e+02 
       5.076339834446e-01       2.073929161965e+02 
       5.279621660342e-01       1.915641445364e+02 
       5.498697808307e-01       1.764970042227e+02 
       5.736810697303e-01       1.618028455666e+02 
       5.998391734470e-01       1.475794718628e+02 
       6.289703348859e-01       1.337769834382e+02 
       6.619961606798e-01       1.201766941654e+02 
       7.003419835700e-01       1.067334985797e+02 
       7.463515491414e-01       9.321970272558e+01 
       8.041795789752e-01       7.941593507337e+01 
       8.818603233715e-01       6.500287764155e+01 
       9.961307548064e-01       4.971152092409e+01 
       1.179694643210e+00       3.404156522832e+01 
       1.464187269816e+00       2.078036507708e+01 
       1.841994320168e+00       1.216462842376e+01 
       2.318916192039e+00       7.036681386880e+00 
       2.919342480108e+00       4.032774329289e+00 
       3.675234433925e+00       2.291966350356e+00 
       4.626846023169e+00       1.292786811139e+00 
       5.824854035026e+00       7.242092797752e-01 
       7.333056764686e+00       4.031690056504e-01 
       9.231771507193e+00       2.231678070793e-01 
       1.162211174628e+01       1.228864890785e-01 
