# Matter power spectrum P(k) at redshift z=0
# for k=2.09249e-07 to 10.499 h/Mpc,
# number of wavenumbers equal to 139
#    1:k (h/Mpc)              2:P (Mpc/h)^3        
       2.092490478621e-07       1.397847958016e+00 
       2.634289437473e-07       1.737760559315e+00 
       3.316373914856e-07       2.160329199855e+00 
       4.175067396423e-07       2.685653224666e+00 
       5.256098441311e-07       3.338719505505e+00 
       6.617035894658e-07       4.150590933052e+00 
       8.330354638539e-07       5.159883911685e+00 
       1.048729514371e-06       6.414605133250e+00 
       1.320272235741e-06       7.974434993357e+00 
       1.662124268060e-06       9.913566256876e+00 
       2.092490478621e-06       1.232423298733e+01 
       2.634289437473e-06       1.532109757641e+01 
       3.316373914856e-06       1.904670452129e+01 
       4.175067396423e-06       2.367826030011e+01 
       5.256098441311e-06       2.943606173400e+01 
       6.617035894658e-06       3.659397353066e+01 
       8.330354638539e-06       4.549245298391e+01 
       1.048729514371e-05       5.655474058786e+01 
       1.320272235741e-05       7.030698517384e+01 
       1.662124268060e-05       8.740325785936e+01 
       2.092490478621e-05       1.086566388065e+02 
       2.634289437473e-05       1.350778439800e+02 
       3.316373914856e-05       1.679232067206e+02 
       4.175067396423e-05       2.087542521330e+02 
       5.256098441311e-05       2.595116111506e+02 
       6.617035894658e-05       3.226066196366e+02 
       8.330354638539e-05       4.010346266621e+02 
       1.048729514371e-04       4.985147532398e+02 
       1.320272235741e-04       6.196614965987e+02 
       1.662124268060e-04       7.701939477282e+02 
       2.092490478621e-04       9.571880760930e+02 
       2.634289437473e-04       1.189375864130e+03 
       3.316373914856e-04       1.477491138166e+03 
       4.175067396423e-04       1.834654962317e+03 
       5.256098441311e-04       2.276783619056e+03 
       6.617035894658e-04       2.822990380403e+03 
       8.330354638539e-04       3.495931962078e+03 
       1.048729514371e-03       4.321988073077e+03 
       1.320272235741e-03       5.331026364266e+03 
       1.662124268060e-03       6.555421795016e+03 
       2.092490478621e-03       8.027975886053e+03 
       2.634289437473e-03       9.778162017541e+03 
       3.316373914856e-03       1.182614582938e+04 
       4.175067396423e-03       1.417403242259e+04 
       5.256098441311e-03       1.671246113207e+04 
       6.617035894658e-03       1.948956290759e+04 
       8.330354638539e-03       2.230475095446e+04 
       1.048729514371e-02       2.492218740637e+04 
       1.320272235741e-02       2.700036492070e+04 
       1.662124268039e-02       2.810221381479e+04 
       2.092490399436e-02       2.777712932329e+04 
       2.634249094150e-02       2.577954163773e+04 
       3.312347784307e-02       2.243603752025e+04 
       4.076156823480e-02       1.909078851944e+04 
       4.671326154024e-02       1.720828258635e+04 
       5.114401988677e-02       1.618594975681e+04 
       5.487825882878e-02       1.550204319500e+04 
       5.825123231650e-02       1.496734609129e+04 
       6.141855072597e-02       1.449551343239e+04 
       6.446513321006e-02       1.403986925393e+04 
       6.744302776063e-02       1.357359296964e+04 
       7.038699519975e-02       1.308226306989e+04 
       7.332185986713e-02       1.256057022269e+04 
       7.626634661537e-02       1.201049114595e+04 
       7.923524547261e-02       1.143986215592e+04 
       8.224070982111e-02       1.086091117202e+04 
       8.529307416208e-02       1.028860777074e+04 
       8.840139036914e-02       9.738863139756e+03 
       9.157379118903e-02       9.226712247101e+03 
       9.481774348434e-02       8.764641281791e+03 
       9.814022867269e-02       8.361202748560e+03 
       1.015478736399e-01       8.020004260057e+03 
       1.050470470642e-01       7.739105652664e+03 
       1.086439310204e-01       7.510849321786e+03 
       1.123445745621e-01       7.322201794809e+03 
       1.161549339593e-01       7.155771841140e+03 
       1.200809029459e-01       6.991719225719e+03 
       1.241283354644e-01       6.810660788377e+03 
       1.283030628156e-01       6.597338376336e+03 
       1.326109067372e-01       6.344287152339e+03 
       1.370576896785e-01       6.054295741801e+03 
       1.416492433708e-01       5.740460595901e+03 
       1.463914166853e-01       5.423327624619e+03 
       1.512900837010e-01       5.125750568488e+03 
       1.563511528624e-01       4.867022602628e+03 
       1.615805780800e-01       4.657984446726e+03 
       1.669843726088e-01       4.498231443934e+03 
       1.725686265298e-01       4.375897295705e+03 
       1.783395286499e-01       4.270313668750e+03 
       1.843033936352e-01       4.157787282441e+03 
       1.904666951952e-01       4.019766029817e+03 
       1.968361061526e-01       3.850518411558e+03 
       2.034185462688e-01       3.659956363537e+03 
       2.102212387582e-01       3.468981070944e+03 
       2.172517765254e-01       3.299372862936e+03 
       2.245181993145e-01       3.163702195527e+03 
       2.320290831843e-01       3.060081739972e+03 
       2.397936440323e-01       2.973678087621e+03 
       2.478218573202e-01       2.884610981528e+03 
       2.561245967278e-01       2.779321566260e+03 
       2.647137952230e-01       2.658773501716e+03 
       2.736026330502e-01       2.536731039620e+03 
       2.828057584700e-01       2.428807148799e+03 
       2.923395488599e-01       2.341054649490e+03 
       3.022224221453e-01       2.266580527864e+03 
       3.124752117080e-01       2.192189658401e+03 
       3.231216222444e-01       2.109995092215e+03 
       3.341887899866e-01       2.023783568684e+03 
       3.457079789952e-01       1.943477465324e+03 
       3.577154569719e-01       1.873893074913e+03 
       3.702536109195e-01       1.810353193706e+03 
       3.833723876959e-01       1.745479047949e+03 
       3.971311813588e-01       1.678458464179e+03 
       4.116013453154e-01       1.614495929647e+03 
       4.268695946784e-01       1.555905914806e+03 
       4.430427037529e-01       1.499079580124e+03 
       4.602541326211e-01       1.441467670589e+03 
       4.786736045997e-01       1.385251991893e+03 
       4.985213362296e-01       1.331302194467e+03 
       5.200898611731e-01       1.277325997358e+03 
       5.437787529402e-01       1.223244063627e+03 
       5.701522917768e-01       1.169338996176e+03 
       6.000401917469e-01       1.114096809612e+03 
       6.347243248744e-01       1.057007689227e+03 
       6.763098146536e-01       9.963642603062e+02 
       7.285225508575e-01       9.299156221635e+02 
       7.985553552473e-01       8.536142326914e+02 
       9.013796874838e-01       7.606714962854e+02 
       1.066383053478e+00       6.426962168689e+02 
       1.322762210262e+00       5.058171879006e+02 
       1.663988922537e+00       3.769863753179e+02 
       2.094820672847e+00       2.686765992530e+02 
       2.637222934820e+00       1.839762698142e+02 
       3.320066969197e+00       1.218887412318e+02 
       4.179716676381e+00       7.869198041491e+01 
       5.261951537995e+00       4.981575641739e+01 
       6.624404506812e+00       3.107851597697e+01 
       8.339631171629e+00       1.918211201944e+01 
       1.049897360695e+01       1.174719329859e+01 
