# Matter power spectrum P(k) at redshift z=2.5
# for k=2.1054e-07 to 10.5656 h/Mpc,
# number of wavenumbers equal to 139
#    1:k (h/Mpc)              2:P (Mpc/h)^3        
       2.105404027359e-07       1.783409814784e-01 
       2.650546632136e-07       2.218304458210e-01 
       3.336840510341e-07       2.759250636442e-01 
       4.200833313573e-07       3.432109620650e-01 
       5.288535809168e-07       4.269049096333e-01 
       6.657872121345e-07       5.310081021620e-01 
       8.381764402037e-07       6.604974492137e-01 
       1.055201620140e-06       8.215635071618e-01 
       1.328420134160e-06       1.021906432573e+00 
       1.672381864433e-06       1.271104105592e+00 
       2.105404027359e-06       1.581070018642e+00 
       2.650546632136e-06       1.966622821950e+00 
       3.336840510341e-06       2.446194746455e+00 
       4.200833313573e-06       3.042712769296e+00 
       5.288535809168e-06       3.784694620190e+00 
       6.657872121345e-06       4.707612006902e+00 
       8.381764402037e-06       5.855586151773e+00 
       1.055201620140e-05       7.283496576452e+00 
       1.328420134160e-05       9.059603688345e+00 
       1.672381864433e-05       1.126881004379e+01 
       2.105404027359e-05       1.401671517838e+01 
       2.650546632136e-05       1.743465591175e+01 
       3.336840510341e-05       2.168596915290e+01 
       4.200833313573e-05       2.697376897120e+01 
       5.288535809168e-05       3.355059456765e+01 
       6.657872121345e-05       4.173036078237e+01 
       8.381764402037e-05       5.190312386361e+01 
       1.055201620140e-04       6.455325417766e+01 
       1.328420134160e-04       8.028166093221e+01 
       1.672381864433e-04       9.983269712563e+01 
       2.105404027359e-04       1.241261943623e+02 
       2.650546632136e-04       1.542945694863e+02 
       3.336840510341e-04       1.917238239361e+02 
       4.200833313573e-04       2.380951025684e+02 
       5.288535809168e-04       2.954198596780e+02 
       6.657872121345e-04       3.660566642863e+02 
       8.381764402037e-04       4.526930146267e+02 
       1.055201620140e-03       5.582754319591e+02 
       1.328420134160e-03       6.858762463048e+02 
       1.672381864433e-03       8.384711103216e+02 
       2.105404027359e-03       1.018524070525e+03 
       2.650546632136e-03       1.227255982594e+03 
       3.336840510341e-03       1.463719439482e+03 
       4.200833313573e-03       1.723735287513e+03 
       5.288535809168e-03       1.998609356595e+03 
       6.657872121345e-03       2.273909072924e+03 
       8.381764402037e-03       2.528548937764e+03 
       1.055201620140e-02       2.734341554254e+03 
       1.328420134160e-02       2.856671203549e+03 
       1.672381864433e-02       2.857688131095e+03 
       2.105404024895e-02       2.705264088824e+03 
       2.650543585771e-02       2.392151540261e+03 
       3.336214445623e-02       1.963906384268e+03 
       4.171392213920e-02       1.540060923023e+03 
       4.953759723216e-02       1.280641110762e+03 
       5.513508944146e-02       1.160287829216e+03 
       5.961747177269e-02       1.088428772022e+03 
       6.355799384219e-02       1.034807561566e+03 
       6.720068610802e-02       9.881409033024e+02 
       7.066979275749e-02       9.432919867402e+02 
       7.403777780146e-02       8.978065693677e+02 
       7.735126654343e-02       8.507048850896e+02 
       8.064258817770e-02       8.019481905943e+02 
       8.393554204853e-02       7.521336772666e+02 
       8.724854222103e-02       7.022694910059e+02 
       9.059645331687e-02       6.535790273312e+02 
       9.399172210814e-02       6.073226925712e+02 
       9.744510645862e-02       5.646404276851e+02 
       1.009661622159e-01       5.264236170025e+02 
       1.045635783174e-01       4.932229944453e+02 
       1.082454131959e-01       4.651943475367e+02 
       1.120192649403e-01       4.420796387602e+02 
       1.158923957380e-01       4.232210626419e+02 
       1.198718239813e-01       4.076089299816e+02 
       1.239643930079e-01       3.939711525881e+02 
       1.281768226546e-01       3.809141151841e+02 
       1.325157480014e-01       3.671164085000e+02 
       1.369877485000e-01       3.515558195867e+02 
       1.415993698948e-01       3.337212306707e+02 
       1.463571408255e-01       3.137423614409e+02 
       1.512675856506e-01       2.923760892193e+02 
       1.563372348026e-01       2.708289902964e+02 
       1.615726338364e-01       2.504546391522e+02 
       1.669803522373e-01       2.324128402093e+02 
       1.725669929926e-01       2.173871995819e+02 
       1.783392038978e-01       2.054286694050e+02 
       1.843036915389e-01       1.959523978851e+02 
       1.904672388830e-01       1.878923761338e+02 
       1.968367273935e-01       1.800037564507e+02 
       2.034191645846e-01       1.712610182875e+02 
       2.102217179266e-01       1.612225841729e+02 
       2.172517560289e-01       1.501847504395e+02 
       2.245168980522e-01       1.390143329756e+02 
       2.320250723589e-01       1.287238131454e+02 
       2.397845855018e-01       1.200043748579e+02 
       2.478042027937e-01       1.129423880701e+02 
       2.560932419139e-01       1.070338395041e+02 
       2.646616813067e-01       1.014802034845e+02 
       2.735202855410e-01       9.563066820796e+01 
       2.826807503634e-01       8.933058885584e+01 
       2.921558709247e-01       8.294407829988e+01 
       3.019597376545e-01       7.703110829601e+01 
       3.121079655720e-01       7.192733556467e+01 
       3.226179645598e-01       6.753735108280e+01 
       3.335092604408e-01       6.346994618244e+01 
       3.448038797942e-01       5.938546470137e+01 
       3.565268156362e-01       5.525675226149e+01 
       3.687065968229e-01       5.131518419559e+01 
       3.813759919717e-01       4.776245619935e+01 
       3.945728898601e-01       4.456522509545e+01 
       4.083414141922e-01       4.153490758053e+01 
       4.227333537467e-01       3.856392395617e+01 
       4.378100231018e-01       3.571680404192e+01 
       4.536447206571e-01       3.308369762810e+01 
       4.703260300516e-01       3.063608319172e+01 
       4.879623363044e-01       2.829132449296e+01 
       5.066881308450e-01       2.604273041692e+01 
       5.266730179634e-01       2.392554987606e+01 
       5.481349185221e-01       2.192016115101e+01 
       5.713600103917e-01       1.999364015929e+01 
       5.967338923044e-01       1.815101076424e+01 
       6.247922686454e-01       1.638132141942e+01 
       6.563073265054e-01       1.466480914671e+01 
       6.924432738407e-01       1.299195791297e+01 
       7.350551694656e-01       1.134156621103e+01 
       7.873076074525e-01       9.691566491362e+00 
       8.550612016012e-01       8.011615432543e+00 
       9.501529508124e-01       6.268633648671e+00 
       1.097286744045e+00       4.467572939717e+00 
       1.335229813179e+00       2.797483884428e+00 
       1.674668007136e+00       1.616062464791e+00 
       2.108106714966e+00       9.175426865958e-01 
       2.653948105519e+00       5.168505485471e-01 
       3.341122710723e+00       2.891150094586e-01 
       4.206224284451e+00       1.607002947083e-01 
       5.295322639402e+00       8.880647011398e-02 
       6.666416234392e+00       4.881665784161e-02 
       8.392520803073e+00       2.670391621805e-02 
       1.056555770800e+01       1.454223538392e-02 
