# Matter power spectrum P(k) at redshift z=1.5
# for k=1.90345e-07 to 12.0226 h/Mpc,
# number of wavenumbers equal to 140
#    1:k (h/Mpc)              2:P (Mpc/h)^3        
       1.903448905749e-07       4.095523729220e-01 
       2.396300197499e-07       5.108688778896e-01 
       3.016763212919e-07       6.372494156809e-01 
       3.797879870109e-07       7.948944145882e-01 
       4.781247479422e-07       9.915381863564e-01 
       6.019233951921e-07       1.236828383593e+00 
       7.577766581607e-07       1.542799328098e+00 
       9.539842914230e-07       1.924462432744e+00 
       1.200995066925e-06       2.400542682978e+00 
       1.511963209191e-06       2.994397309702e+00 
       1.903448905749e-06       3.735161724058e+00 
       2.396300197499e-06       4.659178930033e+00 
       3.016763212919e-06       5.811782537808e+00 
       3.797879870109e-06       7.249520837528e+00 
       4.781247479422e-06       9.042931022359e+00 
       6.019233951921e-06       1.127999960553e+01 
       7.577766581607e-06       1.407047868347e+01 
       9.539842914230e-06       1.755126957742e+01 
       1.200995066925e-05       2.189313749678e+01 
       1.511963209191e-05       2.730908575231e+01 
       1.903448905749e-05       3.406479851026e+01 
       2.396300197499e-05       4.249166081550e+01 
       3.016763212919e-05       5.300298748865e+01 
       3.797879870109e-05       6.611424297173e+01 
       4.781247479422e-05       8.246821620057e+01 
       6.019233951921e-05       1.028663305431e+02 
       7.577766581607e-05       1.283075166367e+02 
       9.539842914230e-05       1.600363424385e+02 
       1.200995066925e-04       1.996023461130e+02 
       1.511963209191e-04       2.489326751161e+02 
       1.903448905749e-04       3.104200434977e+02 
       2.396300197499e-04       3.870273901980e+02 
       3.016763212919e-04       4.824089768583e+02 
       3.797879870109e-04       6.010443525869e+02 
       4.781247479422e-04       7.483760911727e+02 
       6.019233951921e-04       9.309348967648e+02 
       7.577766581607e-04       1.156428952476e+03 
       9.539842914230e-04       1.433769280975e+03 
       1.200995066925e-03       1.772981484007e+03 
       1.511963209191e-03       2.184868119682e+03 
       1.903448905749e-03       2.680170008419e+03 
       2.396300197499e-03       3.268145498049e+03 
       3.016763212919e-03       3.954390777921e+03 
       3.797879870109e-03       4.737711847276e+03 
       4.781247479422e-03       5.605621013676e+03 
       6.019233951921e-03       6.528582890064e+03 
       7.577766581607e-03       7.453015010716e+03 
       9.539842914230e-03       8.293536509374e+03 
       1.200995066925e-02       8.927132326311e+03 
       1.511963209180e-02       9.197068913511e+03 
       1.903448858587e-02       8.944476899147e+03 
       2.396273378378e-02       8.092915166812e+03 
       3.013835888477e-02       6.786530240860e+03 
       3.719581070780e-02       5.531663702996e+03 
       4.280727213188e-02       4.856119667447e+03 
       4.695108696782e-02       4.517064218342e+03 
       5.042323884435e-02       4.305008997338e+03 
       5.354974609334e-02       4.146862250446e+03 
       5.648022998054e-02       4.010153189748e+03 
       5.929565887729e-02       3.877586765052e+03 
       6.204536019687e-02       3.739323271604e+03 
       6.476212681111e-02       3.590137175927e+03 
       6.746929181530e-02       3.428177234660e+03 
       7.018440162265e-02       3.254275585940e+03 
       7.292127949493e-02       3.071403565370e+03 
       7.569125894897e-02       2.884114659320e+03 
       7.850395861912e-02       2.697927011110e+03 
       8.136778924782e-02       2.518663090514e+03 
       8.429029671887e-02       2.351796513384e+03 
       8.727840067841e-02       2.201867698215e+03 
       9.033856434582e-02       2.072018666135e+03 
       9.347691759485e-02       1.963671357684e+03 
       9.669934744816e-02       1.876350819205e+03 
       1.000115653124e-01       1.807647509535e+03 
       1.034191572764e-01       1.753330698551e+03 
       1.069276218773e-01       1.707663985753e+03 
       1.105423984890e-01       1.663998554144e+03 
       1.142688886689e-01       1.615693244163e+03 
       1.181124722478e-01       1.557300846802e+03 
       1.220785195870e-01       1.485791786301e+03 
       1.261724011824e-01       1.401436441751e+03 
       1.303994956391e-01       1.307953936218e+03 
       1.347651969349e-01       1.211726505859e+03 
       1.392749218269e-01       1.120225078877e+03 
       1.439341182153e-01       1.040110164843e+03 
       1.487482752514e-01       9.755695353589e+02 
       1.537229359622e-01       9.272939381247e+02 
       1.588637131520e-01       8.922571972486e+02 
       1.641763093348e-01       8.643743689049e+02 
       1.696665414472e-01       8.361209051508e+02 
       1.753403710982e-01       8.009841870086e+02 
       1.812039411212e-01       7.560089246382e+02 
       1.872636192318e-01       7.031362512001e+02 
       1.935260496440e-01       6.483196732780e+02 
       1.999982135947e-01       5.986698854795e+02 
       2.066874998621e-01       5.591342763736e+02 
       2.136017865664e-01       5.303551741397e+02 
       2.207495358230e-01       5.085558094277e+02 
       2.281399032072e-01       4.875275366407e+02 
       2.357828645065e-01       4.620795932166e+02 
       2.436893629318e-01       4.311609530946e+02 
       2.518714808732e-01       3.983110150299e+02 
       2.603426414993e-01       3.688152191030e+02 
       2.691178471029e-01       3.457577563257e+02 
       2.782139632387e-01       3.279763368345e+02 
       2.876500605769e-01       3.113153581488e+02 
       2.974478303079e-01       2.922790443180e+02 
       3.076320943092e-01       2.710610443231e+02 
       3.182314387809e-01       2.508793132387e+02 
       3.292790106501e-01       2.342574721220e+02 
       3.408135312756e-01       2.203951421200e+02 
       3.528806042410e-01       2.065000881433e+02 
       3.655344271912e-01       1.914243408158e+02 
       3.788400680887e-01       1.768384797288e+02 
       3.928765446797e-01       1.643008177775e+02 
       4.077410709597e-01       1.528629487465e+02 
       4.235550392556e-01       1.410551289245e+02 
       4.404726526707e-01       1.294983072048e+02 
       4.586937280939e-01       1.190992393606e+02 
       4.784832911888e-01       1.090124715673e+02 
       5.002026782309e-01       9.896111769479e+01 
       5.243610446777e-01       8.952119356009e+01 
       5.517050382815e-01       8.016481078429e+01 
       5.833843849933e-01       7.099762904567e+01 
       6.212794895871e-01       6.182559556960e+01 
       6.687020563555e-01       5.254862288799e+01 
       7.320108648697e-01       4.293484700583e+01 
       8.244024017744e-01       3.282506962218e+01 
       9.721251392069e-01       2.249978108757e+01 
       1.203428905609e+00       1.367873278420e+01 
       1.513579016399e+00       7.935785819666e+00 
       1.905461450429e+00       4.551348615963e+00 
       2.398833780349e+00       2.588450128799e+00 
       3.019952804728e+00       1.460978639683e+00 
       3.801895328292e+00       8.189444194145e-01 
       4.786302641768e+00       4.561816407907e-01 
       6.025598024259e+00       2.526555990228e-01 
       7.585778473996e+00       1.391984556071e-01 
       9.549929289155e+00       7.631947684444e-02 
       1.202264866296e+01       4.165705891481e-02 
