# Matter power spectrum P(k) at redshift z=2
# for k=1.63556e-07 to 10.3316 h/Mpc,
# number of wavenumbers equal to 140
#    1:k (h/Mpc)              2:P (Mpc/h)^3        
       1.635558457800e-07       5.426199046635e-01 
       2.059046104999e-07       6.768551227871e-01 
       2.592185465639e-07       8.442979205023e-01 
       3.263368154777e-07       1.053163305142e+00 
       4.108337098089e-07       1.313698540670e+00 
       5.172089973000e-07       1.638685894502e+00 
       6.511275499096e-07       2.044069754400e+00 
       8.197210189005e-07       2.549738883091e+00 
       1.031967621276e-06       3.180502188253e+00 
       1.299170262573e-06       3.967305878050e+00 
       1.635558457800e-06       4.948751712736e+00 
       2.059046104999e-06       6.172990837687e+00 
       2.592185465639e-06       7.700086084692e+00 
       3.263368154777e-06       9.604958624185e+00 
       4.108337098089e-06       1.198106345082e+01 
       5.172089973000e-06       1.494497393056e+01 
       6.511275499096e-06       1.864210006606e+01 
       8.197210189005e-06       2.325382054679e+01 
       1.031967621276e-05       2.900637753675e+01 
       1.299170262573e-05       3.618196870609e+01 
       1.635558457800e-05       4.513257689795e+01 
       2.059046104999e-05       5.629720858813e+01 
       2.592185465639e-05       7.022337216939e+01 
       3.263368154777e-05       8.759382092374e+01 
       4.108337098089e-05       1.092598155709e+02 
       5.172089973000e-05       1.362824258886e+02 
       6.511275499096e-05       1.699836759890e+02 
       8.197210189005e-05       2.120096079164e+02 
       1.031967621276e-04       2.644075078175e+02 
       1.299170262573e-04       3.297194340174e+02 
       1.635558457800e-04       4.110934682923e+02 
       2.059046104999e-04       5.124121705786e+02 
       2.592185465639e-04       6.384335669245e+02 
       3.263368154777e-04       7.949323431156e+02 
       4.108337098089e-04       9.888168570392e+02 
       5.172089973000e-04       1.228182844950e+03 
       6.511275499096e-04       1.522254939308e+03 
       8.197210189005e-04       1.881171623927e+03 
       1.031967621276e-03       2.315560813179e+03 
       1.299170262573e-03       2.835715462179e+03 
       1.635558457800e-03       3.449939248255e+03 
       2.059046104999e-03       4.161945979274e+03 
       2.592185465639e-03       4.967717513510e+03 
       3.263368154777e-03       5.851532912481e+03 
       4.108337098089e-03       6.780897185610e+03 
       5.172089973000e-03       7.701577338478e+03 
       6.511275499096e-03       8.532770535281e+03 
       8.197210189005e-03       9.163216997270e+03 
       1.031967621276e-02       9.451606623805e+03 
       1.299170262572e-02       9.239920004894e+03 
       1.635558453440e-02       8.399433812680e+03 
       2.059041721795e-02       6.933331886847e+03 
       2.591424548424e-02       5.115641295738e+03 
       3.232427505136e-02       3.542903174716e+03 
       3.806811562002e-02       2.770657519900e+03 
       4.218790027255e-02       2.489776778317e+03 
       4.552941282262e-02       2.365883553138e+03 
       4.848691727583e-02       2.297927029685e+03 
       5.123142066129e-02       2.246583644984e+03 
       5.385144167266e-02       2.192243891959e+03 
       5.639921989016e-02       2.124199177593e+03 
       5.890866355759e-02       2.037165161380e+03 
       6.140344638115e-02       1.929910840547e+03 
       6.390109447502e-02       1.804480951295e+03 
       6.641523293819e-02       1.665486153154e+03 
       6.895690569014e-02       1.519290073027e+03 
       7.153539313323e-02       1.373087228679e+03 
       7.415874105387e-02       1.233963017133e+03 
       7.683411510892e-02       1.108065610502e+03 
       7.956804549346e-02       1.000008361579e+03 
       8.236659994569e-02       9.125613290191e+02 
       8.523550850485e-02       8.466056417686e+02 
       8.818025488134e-02       8.012465155823e+02 
       9.120614415460e-02       7.739592776824e+02 
       9.431835333084e-02       7.606982970164e+02 
       9.752196927331e-02       7.560231538481e+02 
       1.008220172102e-01       7.534219868409e+02 
       1.042234821679e-01       7.460425000142e+02 
       1.077313251056e-01       7.279006544081e+02 
       1.113504951515e-01       6.953397790739e+02 
       1.150859390840e-01       6.482111716471e+02 
       1.189426090391e-01       5.901642822764e+02 
       1.229254693148e-01       5.277274094521e+02 
       1.270395030743e-01       4.684331885162e+02 
       1.312897197074e-01       4.187422468246e+02 
       1.356811635819e-01       3.825513610016e+02 
       1.402189248993e-01       3.605977821168e+02 
       1.449081533592e-01       3.505284765050e+02 
       1.497540753268e-01       3.473496488686e+02 
       1.547620151978e-01       3.444178918364e+02 
       1.599374216504e-01       3.353564470819e+02 
       1.652858994902e-01       3.166022752251e+02 
       1.708132478123e-01       2.891780576718e+02 
       1.765255052512e-01       2.581907284816e+02 
       1.824290031618e-01       2.301129045987e+02 
       1.885304276886e-01       2.096389489595e+02 
       1.948368918468e-01       1.978870307841e+02 
       2.013560189742e-01       1.923101949600e+02 
       2.080960392389e-01       1.879734766515e+02 
       2.150659013245e-01       1.800774266307e+02 
       2.222754020033e-01       1.668688909133e+02 
       2.297353370804e-01       1.506972889427e+02 
       2.374576782188e-01       1.359496938780e+02 
       2.454557815152e-01       1.256665879534e+02 
       2.537446354997e-01       1.196231627107e+02 
       2.623411586595e-01       1.148876483890e+02 
       2.712645598637e-01       1.083477019687e+02 
       2.805367795621e-01       9.943988613658e+01 
       2.901830358645e-01       9.036082489066e+01 
       3.002325083872e-01       8.341708639225e+01 
       3.107192053015e-01       7.861547328025e+01 
       3.216830772707e-01       7.402320744164e+01 
       3.331714689941e-01       6.831701591045e+01 
       3.452410399095e-01       6.234127590397e+01 
       3.579603486697e-01       5.749448422376e+01 
       3.714133957558e-01       5.354618975804e+01 
       3.857045806360e-01       4.933459157598e+01 
       4.009658010773e-01       4.492108042812e+01 
       4.173668914772e-01       4.111378460335e+01 
       4.351314401428e-01       3.761076007618e+01 
       4.545616059268e-01       3.397160353145e+01 
       4.760786643802e-01       3.061699019604e+01 
       5.002924781885e-01       2.737674873644e+01 
       5.281273859031e-01       2.417267460950e+01 
       5.610658647878e-01       2.104804420763e+01 
       6.016572078622e-01       1.791787719167e+01 
       6.546664507479e-01       1.472748747522e+01 
       7.297946361425e-01       1.142231590324e+01 
       8.471511421774e-01       8.032738322798e+00 
       1.036006028955e+00       4.966794333431e+00 
       1.300735118349e+00       2.863503245574e+00 
       1.637444904859e+00       1.628787494714e+00 
       2.061420599347e+00       9.202659947638e-01 
       2.595174776627e+00       5.167441751377e-01 
       3.267131474343e+00       2.884658338701e-01 
       4.113074836722e+00       1.601383628985e-01 
       5.178054432561e+00       8.842983868852e-02 
       6.518784308804e+00       4.858785776199e-02 
       8.206663220359e+00       2.657105864889e-02 
       1.033157687415e+01       1.446677613174e-02 
