# Matter power spectrum P(k) at redshift z=0.5
# for k=2.09974e-07 to 10.5351 h/Mpc,
# number of wavenumbers equal to 139
#    1:k (h/Mpc)              2:P (Mpc/h)^3        
       2.099739429982e-07       6.963889924293e-01 
       2.643415326551e-07       8.686641480238e-01 
       3.327862728521e-07       1.083557336440e+00 
       4.189530955897e-07       1.351611555837e+00 
       5.274306983878e-07       1.685977967814e+00 
       6.639959091607e-07       2.103061113307e+00 
       8.359213233698e-07       2.623323744139e+00 
       1.052362596251e-06       3.272290755298e+00 
       1.324846014842e-06       4.081801471310e+00 
       1.667882314799e-06       5.091571724305e+00 
       2.099739429982e-06       6.351142354924e+00 
       2.643415326551e-06       7.922309725157e+00 
       3.327862728521e-06       9.882157468738e+00 
       4.189530955897e-06       1.232683818258e+01 
       5.274306983878e-06       1.537629052238e+01 
       6.639959091607e-06       1.918012298660e+01 
       8.359213233698e-06       2.392495276389e+01 
       1.052362596251e-05       2.984355913410e+01 
       1.324846014842e-05       3.722629937746e+01 
       1.667882314799e-05       4.643534503856e+01 
       2.099739429982e-05       5.792243262255e+01 
       2.643415326551e-05       7.225099088310e+01 
       3.327862728521e-05       9.012371316759e+01 
       4.189530955897e-05       1.124168936766e+02 
       5.274306983878e-05       1.402231454349e+02 
       6.639959091607e-05       1.749044643441e+02 
       8.359213233698e-05       2.181579843707e+02 
       1.052362596251e-04       2.720971447229e+02 
       1.324846014842e-04       3.393512684427e+02 
       1.667882314799e-04       4.231865452540e+02 
       2.099739429982e-04       5.276507643195e+02 
       2.643415326551e-04       6.577422527055e+02 
       3.327862728521e-04       8.195994766925e+02 
       4.189530955897e-04       1.020700803256e+03 
       5.274306983878e-04       1.270054116437e+03 
       6.639959091607e-04       1.578345767382e+03 
       8.359213233698e-04       1.958009639715e+03 
       1.052362596251e-03       2.423152495301e+03 
       1.324846014842e-03       2.989175810778e+03 
       1.667882314799e-03       3.671799185119e+03 
       2.099739429982e-03       4.485281493443e+03 
       2.643415326551e-03       5.439659465051e+03 
       3.327862728521e-03       6.536741475752e+03 
       4.189530955897e-03       7.764986931772e+03 
       5.274306983878e-03       9.092981907398e+03 
       6.639959091607e-03       1.043691381737e+04 
       8.359213233698e-03       1.174451108037e+04 
       1.052362596251e-02       1.286560742359e+04 
       1.324846014842e-02       1.362732763001e+04 
       1.667882314797e-02       1.382923511329e+04 
       2.099739420995e-02       1.328816167842e+04 
       2.643407312255e-02       1.194039430820e+04 
       3.326600856051e-02       9.994687562650e+03 
       4.142426736715e-02       8.065679700905e+03 
       4.854652187213e-02       6.933062179679e+03 
       5.367411949512e-02       6.379654978381e+03 
       5.786298561980e-02       6.032119885588e+03 
       6.158451899542e-02       5.766116103218e+03 
       6.504552720493e-02       5.532111366957e+03 
       6.835407976650e-02       5.306412739425e+03 
       7.157438660174e-02       5.077171371941e+03 
       7.474833671990e-02       4.839306595412e+03 
       7.790529234845e-02       4.592213084605e+03 
       8.106706215919e-02       4.338431912298e+03 
       8.425064760379e-02       4.082651641603e+03 
       8.746986221578e-02       3.830814037243e+03 
       9.073633774018e-02       3.589265387329e+03 
       9.406017650723e-02       3.363971375976e+03 
       9.745038954166e-02       3.159839647363e+03 
       1.009151994428e-01       2.980193713310e+03 
       1.044622548391e-01       2.826422933803e+03 
       1.080987852023e-01       2.697812689751e+03 
       1.118317143247e-01       2.591551270626e+03 
       1.156677444457e-01       2.502922001380e+03 
       1.196134191032e-01       2.425712406282e+03 
       1.236751702950e-01       2.352885977679e+03 
       1.278593539266e-01       2.277530301272e+03 
       1.321722764622e-01       2.194003316279e+03 
       1.366202149924e-01       2.099064830090e+03 
       1.412094324639e-01       1.992667106974e+03 
       1.459461895062e-01       1.878075876058e+03 
       1.508367540842e-01       1.761152824179e+03 
       1.558874100725e-01       1.648917114268e+03 
       1.611044657635e-01       1.547778273963e+03 
       1.664942632653e-01       1.461944737639e+03 
       1.720631897161e-01       1.392414384423e+03 
       1.778176912170e-01       1.336755150272e+03 
       1.837642903736e-01       1.289736486928e+03 
       1.899096083263e-01       1.244785464481e+03 
       1.962603921447e-01       1.196050935777e+03 
       2.028235484644e-01       1.140471221275e+03 
       2.096061842553e-01       1.078909222190e+03 
       2.166156556443e-01       1.015618838389e+03 
       2.238596257700e-01       9.561580891729e+02 
       2.313461327461e-01       9.047875508838e+02 
       2.390836689536e-01       8.626409330065e+02 
       2.470812731003e-01       8.274542077479e+02 
       2.553486367897e-01       7.949197073856e+02 
       2.638962277615e-01       7.610725085894e+02 
       2.727354325282e-01       7.244731018557e+02 
       2.818787218913e-01       6.867636752408e+02 
       2.913398438157e-01       6.511420895355e+02 
       3.011340494629e-01       6.199117759651e+02 
       3.112783599335e-01       5.929548013218e+02 
       3.217918835960e-01       5.681532703980e+02 
       3.326961970046e-01       5.433044031709e+02 
       3.440158066372e-01       5.179030148991e+02 
       3.557787144889e-01       4.931970615979e+02 
       3.680171186111e-01       4.705765739977e+02 
       3.807682910380e-01       4.500899724086e+02 
       3.940756917909e-01       4.306252078130e+02 
       4.079904013036e-01       4.113480644243e+02 
       4.225729886809e-01       3.925409930218e+02 
       4.378959862611e-01       3.748510773715e+02 
       4.540472229913e-01       3.582133526949e+02 
       4.711343991098e-01       3.420643600890e+02 
       4.892914961505e-01       3.262721455760e+02 
       5.086879709861e-01       3.110845361557e+02 
       5.295422977143e-01       2.964074197727e+02 
       5.521425289902e-01       2.819710217060e+02 
       5.768786310432e-01       2.677736948882e+02 
       6.042954575389e-01       2.537210745066e+02 
       6.351838043991e-01       2.396039755363e+02 
       6.707460365466e-01       2.252665669012e+02 
       7.129180829532e-01       2.104054284977e+02 
       7.650449561262e-01       1.946065634716e+02 
       8.334133968770e-01       1.771929596727e+02 
       9.308792378994e-01       1.570950297992e+02 
       1.083942701118e+00       1.330398866029e+02 
       1.329269632609e+00       1.059090884754e+02 
       1.669756903587e+00       8.094075604236e+01 
       2.102019566725e+00       6.037107986815e+01 
       2.646285503974e+00       4.380497536421e+01 
       3.331476067598e+00       3.080334143066e+01 
       4.194079880283e+00       2.096368989141e+01 
       5.280033740383e+00       1.383069951733e+01 
       6.647168650899e+00       8.878754846463e+00 
       8.368289531099e+00       5.570917454790e+00 
       1.053505234395e+01       3.431376692648e+00 
