# Matter power spectrum P(k) at redshift z=1.5
# for k=2.05578e-07 to 10.3139 h/Mpc,
# number of wavenumbers equal to 139
#    1:k (h/Mpc)              2:P (Mpc/h)^3        
       2.055778185370e-07       3.110867116710e-01 
       2.588071398574e-07       3.880444353839e-01 
       3.258188851203e-07       4.840402309774e-01 
       4.101816741204e-07       6.037838034589e-01 
       5.163881330024e-07       7.531499607422e-01 
       6.500941429857e-07       9.394668413226e-01 
       8.184200366633e-07       1.171875443264e+00 
       1.030329781677e-06       1.461778095221e+00 
       1.297108344681e-06       1.823397870883e+00 
       1.632962656970e-06       2.274476391573e+00 
       2.055778185370e-06       2.837144250859e+00 
       2.588071398574e-06       3.539006761419e+00 
       3.258188851203e-06       4.414498286691e+00 
       4.101816741204e-06       5.506571587360e+00 
       5.163881330024e-06       6.868805038299e+00 
       6.500941429857e-06       8.568031044214e+00 
       8.184200366633e-06       1.068761449943e+01 
       1.030329781677e-05       1.333154192772e+01 
       1.297108344681e-05       1.662952149013e+01 
       1.632962656970e-05       2.074334325562e+01 
       2.055778185370e-05       2.587481010550e+01 
       2.588071398574e-05       3.227562514301e+01 
       3.258188851203e-05       4.025971421773e+01 
       4.101816741204e-05       5.021857542802e+01 
       5.163881330024e-05       6.264038353378e+01 
       6.500941429857e-05       7.813373707598e+01 
       8.184200366633e-05       9.745711578089e+01 
       1.030329781677e-04       1.215553022150e+02 
       1.297108344681e-04       1.516041806679e+02 
       1.632962656970e-04       1.890653851595e+02 
       2.055778185370e-04       2.357520829075e+02 
       2.588071398574e-04       2.939064861822e+02 
       3.258188851203e-04       3.662880522094e+02 
       4.101816741204e-04       4.562681748468e+02 
       5.163881330024e-04       5.679220348785e+02 
       6.500941429857e-04       7.061016588408e+02 
       8.184200366633e-04       8.764686677156e+02 
       1.030329781677e-03       1.085462623922e+03 
       1.297108344681e-03       1.340166807467e+03 
       1.632962656970e-03       1.647963783849e+03 
       2.055778185370e-03       2.015786531473e+03 
       2.588071398574e-03       2.448896762409e+03 
       3.258188851203e-03       2.949183091799e+03 
       4.101816741204e-03       3.512845277537e+03 
       5.163881330024e-03       4.127458774905e+03 
       6.500941429857e-03       4.768663078676e+03 
       8.184200366633e-03       5.396887426614e+03 
       1.030329781677e-02       5.954672751687e+03 
       1.297108344681e-02       6.366222925395e+03 
       1.632962656963e-02       6.542881943535e+03 
       2.055778150983e-02       6.402257883149e+03 
       2.588049755744e-02       5.910809657459e+03 
       3.255622997382e-02       5.147229438549e+03 
       4.027684593173e-02       4.371831127430e+03 
       4.653866184200e-02       3.904594472536e+03 
       5.113066236926e-02       3.639651233311e+03 
       5.495724056605e-02       3.451432957247e+03 
       5.839281434134e-02       3.296202231465e+03 
       6.160744347267e-02       3.155549440050e+03 
       6.469244160552e-02       3.020515013958e+03 
       6.770312773820e-02       2.886667201325e+03 
       7.067612214654e-02       2.752190071885e+03 
       7.363739318611e-02       2.616966812438e+03 
       7.660641424839e-02       2.482029501451e+03 
       7.959849009913e-02       2.349149023961e+03 
       8.262614309615e-02       2.220479962492e+03 
       8.569998188206e-02       2.098236205761e+03 
       8.882926860413e-02       1.984398024143e+03 
       9.202230204916e-02       1.880461775581e+03 
       9.528668378772e-02       1.787246120505e+03 
       9.862950735537e-02       1.704766725227e+03 
       1.020574952495e-01       1.632189577099e+03 
       1.055770995859e-01       1.567874000616e+03 
       1.091945768477e-01       1.509516704519e+03 
       1.129160437886e-01       1.454406673818e+03 
       1.167475194018e-01       1.399786148084e+03 
       1.206949564675e-01       1.343285611423e+03 
       1.247642652737e-01       1.283361198618e+03 
       1.289613314908e-01       1.219628317916e+03 
       1.332920297756e-01       1.152978786257e+03 
       1.377622344068e-01       1.085406497877e+03 
       1.423778280799e-01       1.019548119751e+03 
       1.471447098699e-01       9.580384852489e+02 
       1.520688033012e-01       9.028469853457e+02 
       1.571560654156e-01       8.547707895055e+02 
       1.624124977010e-01       8.132214727788e+02 
       1.678441597271e-01       7.763792815585e+02 
       1.734571863183e-01       7.417161552724e+02 
       1.792578090923e-01       7.067886009087e+02 
       1.852523831807e-01       6.700676019159e+02 
       1.914474199607e-01       6.314728597545e+02 
       1.978496266342e-01       5.923289420009e+02 
       2.044659535279e-01       5.547100104814e+02 
       2.113036500463e-01       5.204626457777e+02 
       2.183703303079e-01       4.903750071976e+02 
       2.256740496419e-01       4.638851543869e+02 
       2.332233933408e-01       4.394626732091e+02 
       2.410275793680e-01       4.154773827681e+02 
       2.490965771336e-01       3.910894923996e+02 
       2.574412450129e-01       3.666189220224e+02 
       2.660734900284e-01       3.431474156128e+02 
       2.750064541013e-01       3.216506732526e+02 
       2.842547325848e-01       3.023066525005e+02 
       2.938346325195e-01       2.844707996444e+02 
       3.037644803574e-01       2.672828142097e+02 
       3.140649919961e-01       2.503664123838e+02 
       3.247597221723e-01       2.340090649428e+02 
       3.358756160371e-01       2.187061346606e+02 
       3.474436937830e-01       2.045885918720e+02 
       3.594999105585e-01       1.913346616004e+02 
       3.720862502215e-01       1.785889434017e+02 
       3.852521353189e-01       1.663300698083e+02 
       3.990562711437e-01       1.547463211765e+02 
       4.135690955797e-01       1.438714319705e+02 
       4.288760900965e-01       1.335335236837e+02 
       4.450823404061e-01       1.236237277176e+02 
       4.623189531381e-01       1.141832309438e+02 
       4.807523023413e-01       1.052072539824e+02 
       5.005977210892e-01       9.660161282124e+01 
       5.221404175013e-01       8.832696970125e+01 
       5.457686016405e-01       8.036156447407e+01 
       5.720282090115e-01       7.263722732648e+01 
       6.017178866717e-01       6.510100014863e+01 
       6.360637737945e-01       5.768135254497e+01 
       6.770638840187e-01       5.028750826458e+01 
       7.282213532437e-01       4.279922481565e+01 
       7.962294283820e-01       3.505897549143e+01 
       8.949371818781e-01       2.692036114347e+01 
       1.052180358537e+00       1.857591472309e+01 
       1.299977348512e+00       1.134325277395e+01 
       1.634662180914e+00       6.582885156047e+00 
       2.057886639917e+00       3.774574420208e+00 
       2.590725688876e+00       2.146099778826e+00 
       3.261530404674e+00       1.210952146688e+00 
       4.106023507783e+00       6.785896361523e-01 
       5.169177335372e+00       3.778862804194e-01 
       6.507608705570e+00       2.092315127187e-01 
       8.192593969455e+00       1.152432202376e-01 
       1.031386473666e+01       6.317003429634e-02 
