# Matter power spectrum P(k) at redshift z=2.5
# for k=2.09393e-07 to 10.5057 h/Mpc,
# number of wavenumbers equal to 139
#    1:k (h/Mpc)              2:P (Mpc/h)^3        
       2.093931474270e-07       1.189306419993e-01 
       2.636103543514e-07       1.489785568364e-01 
       3.318657739050e-07       1.866180995884e-01 
       4.177942560738e-07       2.337673006172e-01 
       5.259718058729e-07       2.928287820707e-01 
       6.621592723007e-07       3.668121901368e-01 
       8.336091345545e-07       4.594875601928e-01 
       1.049451722994e-06       5.755774293584e-01 
       1.321181442529e-06       7.209974863150e-01 
       1.663268891590e-06       9.031580208383e-01 
       2.093931474270e-06       1.131341534748e+00 
       2.636103543514e-06       1.417175752749e+00 
       3.318657739050e-06       1.775226139178e+00 
       4.177942560738e-06       2.223738103954e+00 
       5.259718058729e-06       2.785566716541e+00 
       6.621592723007e-06       3.489341282325e+00 
       8.336091345545e-06       4.370924096231e+00 
       1.049451722994e-05       5.475237638483e+00 
       1.321181442529e-05       6.858553198476e+00 
       1.663268891590e-05       8.591357275437e+00 
       2.093931474270e-05       1.076194132496e+01 
       2.636103543514e-05       1.348089672838e+01 
       3.318657739050e-05       1.688674202179e+01 
       4.177942560738e-05       2.115296508301e+01 
       5.259718058729e-05       2.649683111464e+01 
       6.621592723007e-05       3.319038942156e+01 
       8.336091345545e-05       4.157420840123e+01 
       1.049451722994e-04       5.207447665498e+01 
       1.321181442529e-04       6.522421947314e+01 
       1.663268891590e-04       8.168947242191e+01 
       2.093931474270e-04       1.023012801220e+02 
       2.636103543514e-04       1.280942560063e+02 
       3.318657739050e-04       1.603519816344e+02 
       4.177942560738e-04       2.006584776438e+02 
       5.259718058729e-04       2.509530135384e+02 
       6.621592723007e-04       3.135824648438e+02 
       8.336091345545e-04       3.913418054108e+02 
       1.049451722994e-03       4.874907777238e+02 
       1.321181442529e-03       6.057330730165e+02 
       1.663268891590e-03       7.501299538950e+02 
       2.093931474270e-03       9.248683082705e+02 
       2.636103543514e-03       1.133770889735e+03 
       3.318657739050e-03       1.379555185396e+03 
       4.177942560738e-03       1.662753019145e+03 
       5.259718058729e-03       1.980132613491e+03 
       6.621592723007e-03       2.322636929198e+03 
       8.336091345545e-03       2.672873529572e+03 
       1.049451722994e-02       3.002284934974e+03 
       1.321181442529e-02       3.268890586445e+03 
       1.663268891576e-02       3.418082747623e+03 
       2.093931416351e-02       3.392259986257e+03 
       2.636071532800e-02       3.157860771615e+03 
       3.315244003341e-02       2.751692139129e+03 
       4.088612099825e-02       2.335677356173e+03 
       4.700225283024e-02       2.097767673137e+03 
       5.152801153658e-02       1.969358101763e+03 
       5.532598038458e-02       1.883193498891e+03 
       5.874865168587e-02       1.815117591656e+03 
       6.195827114119e-02       1.754306481661e+03 
       6.504283082828e-02       1.695036876622e+03 
       6.805602142323e-02       1.634126511433e+03 
       7.103357908278e-02       1.569964827151e+03 
       7.400095536110e-02       1.502074487007e+03 
       7.697730488019e-02       1.430857891643e+03 
       7.997772802635e-02       1.357399126260e+03 
       8.301461260758e-02       1.283268936022e+03 
       8.609847731437e-02       1.210316666972e+03 
       8.923852391252e-02       1.140453380285e+03 
       9.244301103864e-02       1.075438548992e+03 
       9.571951432246e-02       1.016687935298e+03 
       9.907511155811e-02       9.651166998253e+02 
       1.025165169529e-01       9.210282096734e+02 
       1.060501798519e-01       8.840542243637e+02 
       1.096823580974e-01       8.531531715980e+02 
       1.134191729136e-01       8.266786441241e+02 
       1.172666501174e-01       8.025346253695e+02 
       1.212307510965e-01       7.784328150074e+02 
       1.253173961041e-01       7.522462645882e+02 
       1.295324818181e-01       7.224143940243e+02 
       1.338818947206e-01       6.883079670157e+02 
       1.383715215901e-01       6.504334657780e+02 
       1.430072582219e-01       6.103762726581e+02 
       1.477950173853e-01       5.704534048109e+02 
       1.527407369519e-01       5.331504121071e+02 
       1.578503890865e-01       5.004958515867e+02 
       1.631299913641e-01       4.735434626015e+02 
       1.685856206569e-01       4.520885511855e+02 
       1.742234306283e-01       4.346901872398e+02 
       1.800496736560e-01       4.190344903059e+02 
       1.860707280103e-01       4.026230451196e+02 
       1.922931311120e-01       3.836403594862e+02 
       1.987236197142e-01       3.616727806879e+02 
       2.053691778851e-01       3.378865662887e+02 
       2.122370937306e-01       3.144856815186e+02 
       2.193350258985e-01       2.936764835958e+02 
       2.266710810577e-01       2.766548341362e+02 
       2.342539037678e-01       2.630958218661e+02 
       2.420927804676e-01       2.513734346269e+02 
       2.501977597359e-01       2.394496702329e+02 
       2.585797915498e-01       2.260384213665e+02 
       2.672508890299e-01       2.113438987078e+02 
       2.762243171700e-01       1.967986917966e+02 
       2.855148143821e-01       1.839482354283e+02 
       2.951388544548e-01       1.733265469060e+02 
       3.051149588848e-01       1.641573786818e+02 
       3.154640727068e-01       1.550865696489e+02 
       3.262100212583e-01       1.453651896843e+02 
       3.373800712384e-01       1.354276848331e+02 
       3.490056276778e-01       1.262830538755e+02 
       3.611231101168e-01       1.183797633079e+02 
       3.737750680760e-01       1.111934913503e+02 
       3.870116204560e-01       1.039632924860e+02 
       4.008923400849e-01       9.663660913686e+01 
       4.154887602798e-01       8.976967656973e+01 
       4.308877668486e-01       8.358613791084e+01 
       4.471962770108e-01       7.768263157806e+01 
       4.645478330320e-01       7.179749985925e+01 
       4.831121209970e-01       6.618913945594e+01 
       5.031090948516e-01       6.095324656151e+01 
       5.248306046926e-01       5.583419102551e+01 
       5.486747470916e-01       5.085263112280e+01 
       5.752027946631e-01       4.607174693032e+01 
       6.052383911610e-01       4.134949762158e+01 
       6.400509039657e-01       3.670547658391e+01 
       6.817185966798e-01       3.204594296224e+01 
       7.339063036532e-01       2.730803041417e+01 
       8.036606805482e-01       2.238036213463e+01 
       9.056174294606e-01       1.717071358661e+01 
       1.068793730102e+00       1.182208700698e+01 
       1.323803280181e+00       7.234530230469e+00 
       1.665065923991e+00       4.229905841654e+00 
       2.096171878628e+00       2.444265476649e+00 
       2.638923985636e+00       1.400119974020e+00 
       3.322208465288e+00       7.957118270605e-01 
       4.182412660229e+00       4.489930956077e-01 
       5.265345580572e+00       2.517088223336e-01 
       6.628677353260e+00       1.402750536532e-01 
       8.345010366604e+00       7.775072651993e-02 
       1.050574561220e+01       4.288080917980e-02 
