# Matter power spectrum P(k) at redshift z=0.5
# for k=1.98874e-07 to 12.5629 h/Mpc,
# number of wavenumbers equal to 140
#    1:k (h/Mpc)              2:P (Mpc/h)^3        
       1.988740877921e-07       8.075309994877e-01 
       2.503676428688e-07       1.007300855520e+00 
       3.151941878985e-07       1.256490480163e+00 
       3.968059727953e-07       1.567325509054e+00 
       4.995491227037e-07       1.955055998111e+00 
       6.288950850112e-07       2.438704614886e+00 
       7.917320038730e-07       3.041999919705e+00 
       9.967315390065e-07       3.794540524443e+00 
       1.254810663192e-06       4.733247243449e+00 
       1.579713030883e-06       5.904174479746e+00 
       1.988740877921e-06       7.364769712620e+00 
       2.503676428688e-06       9.186691932972e+00 
       3.151941878985e-06       1.145932729116e+01 
       3.968059727953e-06       1.429417441263e+01 
       4.995491227037e-06       1.783031447817e+01 
       6.288950850112e-06       2.224123433609e+01 
       7.917320038730e-06       2.774333719016e+01 
       9.967315390065e-06       3.460655800041e+01 
       1.254810663192e-05       4.316760359398e+01 
       1.579713030883e-05       5.384646546291e+01 
       1.988740877921e-05       6.716701222094e+01 
       2.503676428688e-05       8.378266575651e+01 
       3.151941878985e-05       1.045084084159e+02 
       3.968059727953e-05       1.303606671414e+02 
       4.995491227037e-05       1.626069831294e+02 
       6.288950850112e-05       2.028278091045e+02 
       7.917320038730e-05       2.529932795507e+02 
       9.967315390065e-05       3.155583554471e+02 
       1.254810663192e-04       3.935803004604e+02 
       1.579713030883e-04       4.908628799151e+02 
       1.988740877921e-04       6.121317447825e+02 
       2.503676428688e-04       7.632447403159e+02 
       3.151941878985e-04       9.514387057557e+02 
       3.968059727953e-04       1.185609953020e+03 
       4.995491227037e-04       1.476618714195e+03 
       6.288950850112e-04       1.837599284755e+03 
       7.917320038730e-04       2.284247329595e+03 
       9.967315390065e-04       2.835030244206e+03 
       1.254810663192e-03       3.511185446591e+03 
       1.579713030883e-03       4.336230931318e+03 
       1.988740877921e-03       5.334772726015e+03 
       2.503676428688e-03       6.530232715450e+03 
       3.151941878985e-03       7.940950025969e+03 
       3.968059727953e-03       9.574344763526e+03 
       4.995491227037e-03       1.141795030022e+04 
       6.288950850112e-03       1.342705750914e+04 
       7.917320038730e-03       1.550853647870e+04 
       9.967315390065e-03       1.750120719800e+04 
       1.254810663192e-02       1.915773281779e+04 
       1.579713030850e-02       2.014390145144e+04 
       1.988740768725e-02       2.009338105062e+04 
       2.503625940223e-02       1.877588510832e+04 
       3.147287068536e-02       1.639944543607e+04 
       3.862124750890e-02       1.399118600588e+04 
       4.410027710364e-02       1.263832123943e+04 
       4.820987875201e-02       1.189207944392e+04 
       5.169084003099e-02       1.139015505387e+04 
       5.484350888807e-02       1.099791597079e+04 
       5.780869863800e-02       1.065235573589e+04 
       6.066382101882e-02       1.031865311548e+04 
       6.345657544581e-02       9.976303507940e+03 
       6.621894780677e-02       9.613843616040e+03 
       6.897385501238e-02       9.226522384915e+03 
       7.173862991799e-02       8.815022449958e+03 
       7.452699464465e-02       8.384481661162e+03 
       7.735024750033e-02       7.943493645989e+03 
       8.021801245171e-02       7.502972124062e+03 
       8.313873156252e-02       7.074882637403e+03 
       8.611999933774e-02       6.670917632422e+03 
       8.916879596650e-02       6.301223940002e+03 
       9.229165369289e-02       5.973291717755e+03 
       9.549477762643e-02       5.691087318088e+03 
       9.878413469125e-02       5.454481505196e+03 
       1.021655197770e-01       5.259011886757e+03 
       1.056446052546e-01       5.096042526603e+03 
       1.092269781634e-01       4.953427989335e+03 
       1.129181681660e-01       4.816814753893e+03 
       1.167236685705e-01       4.671644583088e+03 
       1.206489521862e-01       4.505717920781e+03 
       1.246994834279e-01       4.311857801069e+03 
       1.288807278481e-01       4.089922336977e+03 
       1.331981601218e-01       3.847355164172e+03 
       1.376572714114e-01       3.597785214812e+03 
       1.422635769747e-01       3.357833518029e+03 
       1.470226248391e-01       3.142959684444e+03 
       1.519400063429e-01       2.963511229285e+03 
       1.570213693268e-01       2.821990250064e+03 
       1.622724347483e-01       2.712164713850e+03 
       1.676990174860e-01       2.620383595061e+03 
       1.733070520973e-01       2.529280022560e+03 
       1.791026242975e-01       2.423452776050e+03 
       1.850920089466e-01       2.295424045631e+03 
       1.912817153606e-01       2.149004840174e+03 
       1.976785408289e-01       1.997705984328e+03 
       2.042896333154e-01       1.858434106518e+03 
       2.111225644672e-01       1.743580396585e+03 
       2.181854142735e-01       1.655404356673e+03 
       2.254868690088e-01       1.585221008036e+03 
       2.330363345095e-01       1.517971474221e+03 
       2.408440673734e-01       1.440645086426e+03 
       2.489213274047e-01       1.350142790072e+03 
       2.572805555870e-01       1.254844371403e+03 
       2.659355831411e-01       1.167990072267e+03 
       2.749018789130e-01       1.097751488748e+03 
       2.841968445905e-01       1.041553064838e+03 
       2.938401702797e-01       9.888238706748e+02 
       3.038542670997e-01       9.303200535331e+02 
       3.142647991323e-01       8.662559691216e+02 
       3.251013449953e-01       8.050074141910e+02 
       3.363982305384e-01       7.534462172447e+02 
       3.481955903380e-01       7.095942531915e+02 
       3.605407393558e-01       6.658645490504e+02 
       3.734899715056e-01       6.189945997597e+02 
       3.871109557944e-01       5.735746653831e+02 
       4.014859847875e-01       5.340222095847e+02 
       4.167164645906e-01       4.976448279613e+02 
       4.329292565934e-01       4.601981290079e+02 
       4.502858561651e-01       4.235350274373e+02 
       4.689960521637e-01       3.903077610078e+02 
       4.893389148839e-01       3.579053983988e+02 
       5.116962610261e-01       3.255837623032e+02 
       5.366083727821e-01       2.950853575254e+02 
       5.648716139026e-01       2.646762456174e+02 
       5.977200247088e-01       2.347855440089e+02 
       6.371876935397e-01       2.046583234931e+02 
       6.868909279625e-01       1.739886517074e+02 
       7.538447154306e-01       1.419654727238e+02 
       8.526840041298e-01       1.080572239305e+02 
       1.011749571577e+00       7.350968442735e+01 
       1.257074459239e+00       4.464501195057e+01 
       1.581581432236e+00       2.606397259137e+01 
       1.991080796860e+00       1.504351832477e+01 
       2.506622184268e+00       8.604766868973e+00 
       3.155650365534e+00       4.881948894152e+00 
       3.972728435908e+00       2.749429701347e+00 
       5.001368782122e+00       1.538080273392e+00 
       6.296350253568e+00       8.551832124431e-01 
       7.926635335773e+00       4.728339513909e-01 
       9.979042654230e+00       2.600908323736e-01 
       1.256287038279e+01       1.423900118694e-01 
