# Matter power spectrum P(k) at redshift z=1.5
# for k=2.08936e-07 to 10.4843 h/Mpc,
# number of wavenumbers equal to 139
#    1:k (h/Mpc)              2:P (Mpc/h)^3        
       2.089358499766e-07       3.434114840160e-01 
       2.630346509704e-07       4.268593651098e-01 
       3.311410062890e-07       5.305848116250e-01 
       4.168818277043e-07       6.595152062313e-01 
       5.248231266122e-07       8.197752697313e-01 
       6.607131707893e-07       1.018978009821e+00 
       8.317886006138e-07       1.266586369990e+00 
       1.047159806553e-06       1.574362757343e+00 
       1.318296090680e-06       1.956927803783e+00 
       1.659636448825e-06       2.432454903495e+00 
       2.089358499766e-06       3.023533518141e+00 
       2.630346509704e-06       3.758242259249e+00 
       3.311410062890e-06       4.671482718654e+00 
       4.168818277043e-06       5.806637398849e+00 
       5.248231266122e-06       7.217630485515e+00 
       6.607131707893e-06       8.971489321063e+00 
       8.317886006138e-06       1.115152819357e+01 
       1.047159806553e-05       1.386130553762e+01 
       1.318296090680e-05       1.722954228099e+01 
       1.659636448825e-05       2.141623441820e+01 
       2.089358499766e-05       2.662024917105e+01 
       2.630346509704e-05       3.308876350817e+01 
       3.311410062890e-05       4.112898934301e+01 
       4.168818277043e-05       5.112273444878e+01 
       5.248231266122e-05       6.354447511134e+01 
       6.607131707893e-05       7.898376826205e+01 
       8.317886006138e-05       9.817300732558e+01 
       1.047159806553e-04       1.220217220960e+02 
       1.318296090680e-04       1.516588215220e+02 
       1.659636448825e-04       1.884843394343e+02 
       2.089358499766e-04       2.342322843239e+02 
       2.630346509704e-04       2.910459591014e+02 
       3.311410062890e-04       3.615663426296e+02 
       4.168818277043e-04       4.490324350495e+02 
       5.248231266122e-04       5.573895015940e+02 
       6.607131707893e-04       6.913969663251e+02 
       8.317886006138e-04       8.567233090956e+02 
       1.047159806553e-03       1.060011119587e+03 
       1.318296090680e-03       1.308882322852e+03 
       1.659636448825e-03       1.611801085109e+03 
       2.089358499766e-03       1.977649442354e+03 
       2.630346509704e-03       2.414927541080e+03 
       3.311410062890e-03       2.930404659020e+03 
       4.168818277043e-03       3.522039072549e+03 
       5.248231266122e-03       4.193470139527e+03 
       6.607131707893e-03       4.925891205388e+03 
       8.317886006138e-03       5.686832011572e+03 
       1.047159806553e-02       6.419973627292e+03 
       1.318296090680e-02       7.038865795990e+03 
       1.659636448779e-02       7.426643623360e+03 
       2.089358356519e-02       7.454643141485e+03 
       2.630284016256e-02       7.039431861360e+03 
       3.305915736868e-02       6.245994209303e+03 
       4.049453549527e-02       5.425035646239e+03 
       4.614145587450e-02       4.951491344440e+03 
       5.039656647606e-02       4.678422607669e+03 
       5.401139755949e-02       4.487529424243e+03 
       5.729050768159e-02       4.334103924024e+03 
       6.037754487205e-02       4.197071747126e+03 
       6.335182599393e-02       4.064814940548e+03 
       6.626237954768e-02       3.930558469418e+03 
       6.914216240877e-02       3.790578508106e+03 
       7.201483314769e-02       3.643390958693e+03 
       7.489831459047e-02       3.489295659989e+03 
       7.780681556897e-02       3.330030348618e+03 
       8.075204911893e-02       3.168427999056e+03 
       8.374400280529e-02       3.008039491553e+03 
       8.679144545952e-02       2.852719100318e+03 
       8.990227156820e-02       2.706195241296e+03 
       9.308374171632e-02       2.571657720534e+03 
       9.634265420615e-02       2.451395543284e+03 
       9.968546974330e-02       2.346514021504e+03 
       1.031184032749e-01       2.256752578826e+03 
       1.066474923074e-01       2.180423570677e+03 
       1.102786480523e-01       2.114497808460e+03 
       1.140176938398e-01       2.054870311420e+03 
       1.178703939962e-01       1.996836990304e+03 
       1.218424755599e-01       1.935782491727e+03 
       1.259396446642e-01       1.868010904137e+03 
       1.301675990527e-01       1.791558696300e+03 
       1.345320379485e-01       1.706755750568e+03 
       1.390386703446e-01       1.616301094620e+03 
       1.436932226778e-01       1.524731811849e+03 
       1.485014467839e-01       1.437359339900e+03 
       1.534691289945e-01       1.358942795117e+03 
       1.586021012056e-01       1.292459716099e+03 
       1.639062547373e-01       1.238294055940e+03 
       1.693875577893e-01       1.194052130943e+03 
       1.750520772902e-01       1.155122740317e+03 
       1.809060059395e-01       1.115994088186e+03 
       1.869556952409e-01       1.072103034598e+03 
       1.932076953488e-01       1.021604639251e+03 
       1.996688025818e-01       9.661878364604e+02 
       2.063461155239e-01       9.103308652518e+02 
       2.132471007372e-01       8.592124655250e+02 
       2.203796692656e-01       8.162955373938e+02 
       2.277522653356e-01       7.817603226178e+02 
       2.353739689731e-01       7.525110632162e+02 
       2.432546146856e-01       7.238395566832e+02 
       2.514049289351e-01       6.920896263098e+02 
       2.598366898926e-01       6.568352926569e+02 
       2.685629139782e-01       6.209556410200e+02 
       2.775980750325e-01       5.883689837623e+02 
       2.869583637381e-01       5.611098082840e+02 
       2.966619972885e-01       5.379605234888e+02 
       3.067295924895e-01       5.156512910766e+02 
       3.171846198296e-01       4.917408570344e+02 
       3.280539620403e-01       4.666937663284e+02 
       3.393686090295e-01       4.430389737967e+02 
       3.511645329225e-01       4.224604773569e+02 
       3.634838040170e-01       4.040436664284e+02 
       3.763760334835e-01       3.856301884614e+02 
       3.899002660317e-01       3.665956104216e+02 
       4.041275027956e-01       3.483492161761e+02 
       4.191441236911e-01       3.318779482111e+02 
       4.350566209296e-01       3.162341004657e+02 
       4.519982897818e-01       3.003981692737e+02 
       4.701389207236e-01       2.849913115030e+02 
       4.896992371855e-01       2.705273876431e+02 
       5.109731043683e-01       2.562288032272e+02 
       5.343629874850e-01       2.420012463421e+02 
       5.604390807988e-01       2.281414159991e+02 
       5.900430862915e-01       2.141300700993e+02 
       6.244816868793e-01       1.999794575412e+02 
       6.659135764443e-01       1.852938589249e+02 
       7.181870567644e-01       1.697026893230e+02 
       7.887888315544e-01       1.525047905997e+02 
       8.933570693914e-01       1.327288778153e+02 
       1.061903580265e+00       1.097844622409e+02 
       1.320629000706e+00       8.631315265219e+01 
       1.661665318187e+00       6.631039019179e+01 
       2.091901923171e+00       4.993005773697e+01 
       2.633548467067e+00       3.660025866240e+01 
       3.315441088377e+00       2.598050299403e+01 
       4.173893037464e+00       1.781186805401e+01 
       5.254620010974e+00       1.180429517358e+01 
       6.615174661137e+00       7.591114518984e+00 
       8.328011484362e+00       4.761054385461e+00 
       1.048434528738e+01       2.926893061933e+00 
