# Matter power spectrum P(k) at redshift z=2.5
# for k=2.08893e-07 to 10.4824 h/Mpc,
# number of wavenumbers equal to 139
#    1:k (h/Mpc)              2:P (Mpc/h)^3        
       2.088933015845e-07       1.487691109705e-01 
       2.629810857183e-07       1.855721362993e-01 
       3.310735716320e-07       2.314796233427e-01 
       4.167969325010e-07       2.887438657369e-01 
       5.247162498833e-07       3.601743374702e-01 
       6.605786209595e-07       4.492755298660e-01 
       8.316192124138e-07       5.604188874610e-01 
       1.046946559444e-06       6.990572776457e-01 
       1.318027628475e-06       8.719925164234e-01 
       1.659298474933e-06       1.087709075350e+00 
       2.088933015845e-06       1.356790340719e+00 
       2.629810857183e-06       1.692437847931e+00 
       3.310735716320e-06       2.111118960020e+00 
       4.167969325010e-06       2.633374770684e+00 
       5.247162498833e-06       3.284827847121e+00 
       6.605786209595e-06       4.097439256094e+00 
       8.316192124138e-06       5.111076503776e+00 
       1.046946559444e-05       6.375469259656e+00 
       1.318027628475e-05       7.952648704345e+00 
       1.659298474933e-05       9.919989947491e+00 
       2.088933015845e-05       1.237400633993e+01 
       2.629810857183e-05       1.543508094100e+01 
       3.310735716320e-05       1.925336553369e+01 
       4.167969325010e-05       2.401613314371e+01 
       5.247162498833e-05       2.995693795138e+01 
       6.605786209595e-05       3.736701857334e+01 
       8.316192124138e-05       4.660947755162e+01 
       1.046946559444e-04       5.813688065239e+01 
       1.318027628475e-04       7.251303688588e+01 
       1.659298474933e-04       9.043982800534e+01 
       2.088933015845e-04       1.127900162305e+02 
       2.629810857183e-04       1.406468975772e+02 
       3.310735716320e-04       1.753513502356e+02 
       4.167969325010e-04       2.185560379981e+02 
       5.247162498833e-04       2.722849906387e+02 
       6.605786209595e-04       3.389943209850e+02 
       8.316192124138e-04       4.216267779521e+02 
       1.046946559444e-03       5.236502513258e+02 
       1.318027628475e-03       6.490676184476e+02 
       1.659298474933e-03       8.023681369857e+02 
       2.088933015845e-03       9.883563563169e+02 
       2.629810857183e-03       1.211753998912e+03 
       3.310735716320e-03       1.476521707637e+03 
       4.167969325010e-03       1.784831758479e+03 
       5.247162498833e-03       2.135446501993e+03 
       6.605786209595e-03       2.521426391389e+03 
       8.316192124138e-03       2.927067943142e+03 
       1.046946559444e-02       3.324086224087e+03 
       1.318027628475e-02       3.667896832389e+03 
       1.659298474881e-02       3.896790431149e+03 
       2.088932859375e-02       3.940860850816e+03 
       2.629744160505e-02       3.751487097167e+03 
       3.304982112675e-02       3.356812340653e+03 
       4.045286363224e-02       2.938297959842e+03 
       4.605552049715e-02       2.694487947559e+03 
       5.028514200895e-02       2.552736950003e+03 
       5.388249930285e-02       2.453213421718e+03 
       5.714780878954e-02       2.372958658317e+03 
       6.022301062150e-02       2.300998559874e+03 
       6.318661542965e-02       2.231199189886e+03 
       6.608721469898e-02       2.159930163202e+03 
       6.895750312756e-02       2.085158781794e+03 
       7.182096931833e-02       2.006044472736e+03 
       7.469541886692e-02       1.922713167684e+03 
       7.759497547630e-02       1.836085320257e+03 
       8.053128757055e-02       1.747700850781e+03 
       8.351429173198e-02       1.659521042442e+03 
       8.655271514391e-02       1.573704763344e+03 
       8.965441719372e-02       1.492372127609e+03 
       9.282662804796e-02       1.417371851831e+03 
       9.607611898226e-02       1.350072243893e+03 
       9.940932615643e-02       1.291192863326e+03 
       1.028324417958e-01       1.240689464651e+03 
       1.063514820278e-01       1.197705520053e+03 
       1.099723376700e-01       1.160605773948e+03 
       1.137008123769e-01       1.127113032604e+03 
       1.175426513159e-01       1.094567552285e+03 
       1.215035627327e-01       1.060312981243e+03 
       1.255892342221e-01       1.022173509590e+03 
       1.298053451602e-01       9.789332190989e+02 
       1.341575765148e-01       9.306832702952e+02 
       1.386516190952e-01       8.788978941463e+02 
       1.432931811989e-01       8.261598613346e+02 
       1.480879965513e-01       7.755657322075e+02 
       1.530418333931e-01       7.299577535746e+02 
       1.581605055453e-01       6.911885063958e+02 
       1.634498862662e-01       6.596104789486e+02 
       1.689159257029e-01       6.339247730537e+02 
       1.745646727342e-01       6.114706297466e+02 
       1.804023019982e-01       5.889775094972e+02 
       1.864351469041e-01       5.636603260374e+02 
       1.926697394455e-01       5.343040297931e+02 
       1.991128576676e-01       5.018111333886e+02 
       2.057715817074e-01       4.688230580774e+02 
       2.126533594288e-01       4.385019692382e+02 
       2.197660828306e-01       4.130551981480e+02 
       2.271181766333e-01       3.927205467747e+02 
       2.347187007612e-01       3.756915981186e+02 
       2.425774688710e-01       3.590811828351e+02 
       2.507051856509e-01       3.405575032057e+02 
       2.591136063810e-01       3.197494993662e+02 
       2.678157232614e-01       2.983887078443e+02 
       2.768259843526e-01       2.789602047189e+02 
       2.861605527531e-01       2.628460637851e+02 
       2.958376160111e-01       2.493680093943e+02 
       3.058777589655e-01       2.364598064182e+02 
       3.163044175603e-01       2.224935187125e+02 
       3.271444371722e-01       2.076932646303e+02 
       3.384287673599e-01       1.936955491062e+02 
       3.501933368179e-01       1.816726243345e+02 
       3.624801694115e-01       1.710898675240e+02 
       3.753388272507e-01       1.605082375844e+02 
       3.888283042269e-01       1.494551513312e+02 
       4.030195506133e-01       1.388697939168e+02 
       4.179988985809e-01       1.294790365484e+02 
       4.338728013616e-01       1.206700625748e+02 
       4.507745340321e-01       1.117124967609e+02 
       4.688739035211e-01       1.030345000355e+02 
       4.883917186713e-01       9.504815853387e+01 
       5.096220588888e-01       8.721759186996e+01 
       5.329678467567e-01       7.947867634101e+01 
       5.590002046596e-01       7.210328901450e+01 
       5.885627092383e-01       6.474779020365e+01 
       6.229659192939e-01       5.749858489614e+01 
       6.643769029031e-01       5.017044031050e+01 
       7.166631279822e-01       4.267844840431e+01 
       7.873573276545e-01       3.482803754851e+01 
       8.922009392720e-01       2.648349115584e+01 
       1.061289362056e+00       1.798350717302e+01 
       1.320345066277e+00       1.093568890386e+01 
       1.661353592689e+00       6.408155115787e+00 
       2.091510236381e+00       3.711781680669e+00 
       2.633055364745e+00       2.129886685871e+00 
       3.314820309333e+00       1.211872109426e+00 
       4.173111522951e+00       6.842780154983e-01 
       5.253636142494e+00       3.836993267371e-01 
       6.613936044106e+00       2.137975712801e-01 
       8.326452157906e+00       1.184420583163e-01 
       1.048238221168e+01       6.526946921472e-02 
