# Matter power spectrum P(k) at redshift z=1.5
# for k=2.09085e-07 to 10.4913 h/Mpc,
# number of wavenumbers equal to 139
#    1:k (h/Mpc)              2:P (Mpc/h)^3        
       2.090847868415e-07       2.645037252408e-01 
       2.632221513744e-07       3.303709047846e-01 
       3.313770553124e-07       4.126404443259e-01 
       4.171789958182e-07       5.153968880711e-01 
       5.251972391024e-07       6.437419204649e-01 
       6.611841505101e-07       8.040476560486e-01 
       8.323815289527e-07       1.004273003978e+00 
       1.047906259107e-06       1.254358813963e+00 
       1.319235818768e-06       1.566721421457e+00 
       1.660819496396e-06       1.956869096081e+00 
       2.090847868415e-06       2.444171996163e+00 
       2.632221513744e-06       3.052823856078e+00 
       3.313770553124e-06       3.813043147841e+00 
       4.171789958182e-06       4.762573343013e+00 
       5.251972391024e-06       5.948556745438e+00 
       6.611841505101e-06       7.429874894258e+00 
       8.323815289527e-06       9.280071671464e+00 
       1.047906259107e-05       1.159100410692e+01 
       1.319235818768e-05       1.447740190094e+01 
       1.660819496396e-05       1.808256151177e+01 
       2.090847868415e-05       2.258545654595e+01 
       2.632221513744e-05       2.820961549973e+01 
       3.313770553124e-05       3.523420374046e+01 
       4.171789958182e-05       4.400785228382e+01 
       5.251972391024e-05       5.496590479446e+01 
       6.611841505101e-05       6.865190923245e+01 
       8.323815289527e-05       8.574436222005e+01 
       1.047906259107e-04       1.070899181361e+02 
       1.319235818768e-04       1.337444847294e+02 
       1.660819496396e-04       1.670238036245e+02 
       2.090847868415e-04       2.085651748025e+02 
       2.632221513744e-04       2.604017711679e+02 
       3.313770553124e-04       3.250502341666e+02 
       4.171789958182e-04       4.056105543889e+02 
       5.251972391024e-04       5.058742385914e+02 
       6.611841505101e-04       6.304324891569e+02 
       8.323815289527e-04       7.847716021722e+02 
       1.047906259107e-03       9.753385715330e+02 
       1.319235818768e-03       1.209546930105e+03 
       1.660819496396e-03       1.495643773168e+03 
       2.090847868415e-03       1.842278337755e+03 
       2.632221513744e-03       2.257703922018e+03 
       3.313770553124e-03       2.748439390041e+03 
       4.171789958182e-03       3.317231780780e+03 
       5.251972391024e-03       3.959992565979e+03 
       6.611841505101e-03       4.661581411031e+03 
       8.323815289527e-03       5.390381245888e+03 
       1.047906259107e-02       6.091795307086e+03 
       1.319235818768e-02       6.682364021506e+03 
       1.660819496363e-02       7.049651543770e+03 
       2.090847758626e-02       7.070209891251e+03 
       2.632170155159e-02       6.664403353207e+03 
       3.308990192954e-02       5.895187449290e+03 
       4.061985188211e-02       5.096061763273e+03 
       4.640236525702e-02       4.636383085749e+03 
       5.073562655762e-02       4.376795666846e+03 
       5.440384888918e-02       4.197671923563e+03 
       5.772505319590e-02       4.054353514688e+03 
       6.084815880755e-02       3.926018869539e+03 
       6.385496157390e-02       3.801280502881e+03 
       6.679583018960e-02       3.673563599884e+03 
       6.970452405803e-02       3.539329726732e+03 
       7.260522132042e-02       3.397276044327e+03 
       7.551620280137e-02       3.247881931693e+03 
       7.845193710005e-02       3.093057937055e+03 
       8.142433429518e-02       2.935793325514e+03 
       8.444353735928e-02       2.779766573562e+03 
       8.751844203192e-02       2.628920297224e+03 
       9.065704972213e-02       2.487025226862e+03 
       9.386671365797e-02       2.357266255211e+03 
       9.715431444044e-02       2.241884431616e+03 
       1.005263875092e-01       2.141901977742e+03 
       1.039892169844e-01       2.056949368375e+03 
       1.075489054523e-01       1.985213435947e+03 
       1.112114262004e-01       1.923533417027e+03 
       1.149826624459e-01       1.867680481534e+03 
       1.188684368259e-01       1.812855457974e+03 
       1.228745335725e-01       1.754403647071e+03 
       1.270067152393e-01       1.688671773646e+03 
       1.312707354673e-01       1.613832748849e+03 
       1.356723490359e-01       1.530431675278e+03 
       1.402173202779e-01       1.441415953269e+03 
       1.449114308354e-01       1.351539680977e+03 
       1.497604876654e-01       1.266239958862e+03 
       1.547703321638e-01       1.190276606452e+03 
       1.599468512482e-01       1.126504600093e+03 
       1.652959912271e-01       1.075093053863e+03 
       1.708237752671e-01       1.033392520061e+03 
       1.765363252666e-01       9.965642314208e+02 
       1.824398889399e-01       9.589789615728e+02 
       1.885408729204e-01       9.161324697905e+02 
       1.948458827094e-01       8.664155221036e+02 
       2.013617703326e-01       8.118362534930e+02 
       2.080956906299e-01       7.571277624471e+02 
       2.150551672069e-01       7.075427166237e+02 
       2.222481692334e-01       6.664130562703e+02 
       2.296832004957e-01       6.336540672693e+02 
       2.373694024263e-01       6.059047046734e+02 
       2.453166732606e-01       5.783415658846e+02 
       2.535358060460e-01       5.474256668196e+02 
       2.620386489949e-01       5.130069764566e+02 
       2.708382926826e-01       4.782001013659e+02 
       2.799492899322e-01       4.469543824958e+02 
       2.893879160010e-01       4.211286543177e+02 
       2.991724790511e-01       3.992737435616e+02 
       3.093236940763e-01       3.780302191694e+02 
       3.198651377900e-01       3.550898399566e+02 
       3.308238079483e-01       3.311317250976e+02 
       3.422308189129e-01       3.087572072923e+02 
       3.541222770590e-01       2.895255745514e+02 
       3.665403966206e-01       2.723671038630e+02 
       3.795349414480e-01       2.551342842403e+02 
       3.931651153016e-01       2.373528595835e+02 
       4.075020799214e-01       2.204997119889e+02 
       4.226323683811e-01       2.054703507053e+02 
       4.386626023441e-01       1.912509240649e+02 
       4.557261538109e-01       1.769041444801e+02 
       4.739927853246e-01       1.631171587362e+02 
       4.936829934863e-01       1.503527705496e+02 
       5.150900429201e-01       1.378426954277e+02 
       5.386150898908e-01       1.255692831638e+02 
       5.648256450620e-01       1.138348959391e+02 
       5.945579591850e-01       1.021797940942e+02 
       6.291074097643e-01       9.070519174132e+01 
       6.706082289347e-01       7.914226045232e+01 
       7.228527070403e-01       6.734690371439e+01 
       7.931929343722e-01       5.502607830921e+01 
       8.969631489901e-01       4.196149227283e+01 
       1.063909567307e+00       2.861898390704e+01 
       1.321626521030e+00       1.742624016669e+01 
       1.662770912761e+00       1.019572199685e+01 
       2.093291201949e+00       5.896800357175e+00 
       2.635297457724e+00       3.379537238729e+00 
       3.317642937156e+00       1.921012040150e+00 
       4.176665000845e+00       1.083855229482e+00 
       5.258109706115e+00       6.074031135430e-01 
       6.619567927030e+00       3.383046440829e-01 
       8.333542278436e+00       1.873672071267e-01 
       1.049130814458e+01       1.032369917330e-01 
