# Matter power spectrum P(k) at redshift z=1
# for k=2.10608e-07 to 10.5693 h/Mpc,
# number of wavenumbers equal to 139
#    1:k (h/Mpc)              2:P (Mpc/h)^3        
       2.106075835224e-07       4.264808119626e-01 
       2.651392388129e-07       5.321689064494e-01 
       3.337905254053e-07       6.640480342909e-01 
       4.202173746489e-07       8.286087108286e-01 
       5.290223314229e-07       1.033949894478e+00 
       6.659996564349e-07       1.290177581217e+00 
       8.384438917321e-07       1.609902177276e+00 
       1.055538321665e-06       2.008859126369e+00 
       1.328844016267e-06       2.506683335937e+00 
       1.672915500389e-06       3.127875515631e+00 
       2.106075835224e-06       3.903007980553e+00 
       2.651392388129e-06       4.870229260837e+00 
       3.337905254053e-06       6.077141552241e+00 
       4.202173746489e-06       7.583143383640e+00 
       5.290223314229e-06       9.462352742455e+00 
       6.659996564349e-06       1.180725442437e+01 
       8.384438917321e-06       1.473325091568e+01 
       1.055538321665e-05       1.838434037052e+01 
       1.328844016267e-05       2.294020037549e+01 
       1.672915500389e-05       2.862502455132e+01 
       2.106075835224e-05       3.571854384602e+01 
       2.651392388129e-05       4.456976888717e+01 
       3.337905254053e-05       5.561411776339e+01 
       4.202173746489e-05       6.939474857281e+01 
       5.290223314229e-05       8.658909999575e+01 
       6.659996564349e-05       1.080418543316e+02 
       8.384438917321e-05       1.348057644734e+02 
       1.055538321665e-04       1.681920002009e+02 
       1.328844016267e-04       2.098318008804e+02 
       1.672915500389e-04       2.617511333054e+02 
       2.106075835224e-04       3.264594795931e+02 
       2.651392388129e-04       4.070523600848e+02 
       3.337905254053e-04       5.073240279090e+02 
       4.202173746489e-04       6.318811541952e+02 
       5.290223314229e-04       7.862400543977e+02 
       6.659996564349e-04       9.768810433309e+02 
       8.384438917321e-04       1.211228540688e+03 
       1.055538321665e-03       1.497522186621e+03 
       1.328844016267e-03       1.844503449139e+03 
       1.672915500389e-03       2.260716380173e+03 
       2.106075835224e-03       2.753200612492e+03 
       2.651392388129e-03       3.325608581238e+03 
       3.337905254053e-03       3.975673080944e+03 
       4.202173746489e-03       4.692162966611e+03 
       5.290223314229e-03       5.451341521546e+03 
       6.659996564349e-03       6.207110902185e+03 
       8.384438917321e-03       6.911776684879e+03 
       1.055538321665e-02       7.483024817366e+03 
       1.328844016267e-02       7.825427353760e+03 
       1.672915500389e-02       7.834752598048e+03 
       2.106075833235e-02       7.422525690506e+03 
       2.651389794011e-02       6.568465610157e+03 
       3.337348253800e-02       5.396912853481e+03 
       4.174984795933e-02       4.233326708184e+03 
       4.968528292774e-02       3.515847079774e+03 
       5.536411968071e-02       3.185670584269e+03 
       5.989621749798e-02       2.990257734043e+03 
       6.387325961736e-02       2.844922537153e+03 
       6.754596786466e-02       2.718459877531e+03 
       7.104144107715e-02       2.596812378638e+03 
       7.443357988902e-02       2.473345309270e+03 
       7.776982541121e-02       2.345474374107e+03 
       8.108301373595e-02       2.213179547875e+03 
       8.439728204167e-02       2.078156386138e+03 
       8.773128276046e-02       1.943192498395e+03 
       9.110005698446e-02       1.811629682213e+03 
       9.451618770150e-02       1.686878081567e+03 
       9.799054187956e-02       1.571991781461e+03 
       1.015327656982e-01       1.469327638694e+03 
       1.051516251444e-01       1.380304133635e+03 
       1.088552461466e-01       1.305263733422e+03 
       1.126512873345e-01       1.243431699593e+03 
       1.165470663367e-01       1.192963485600e+03 
       1.205496532323e-01       1.151084149867e+03 
       1.246659402849e-01       1.114339515420e+03 
       1.289026942357e-01       1.078984137949e+03 
       1.332665956028e-01       1.041506577316e+03 
       1.377642682262e-01       9.992347917010e+02 
       1.424023015016e-01       9.508900313931e+02 
       1.471872672141e-01       8.969099426700e+02 
       1.521257325303e-01       8.393846516301e+02 
       1.572242704727e-01       7.815603879632e+02 
       1.624894690480e-01       7.270226774606e+02 
       1.679279401064e-01       6.787946570488e+02 
       1.735463289426e-01       6.386049589443e+02 
       1.793513256161e-01       6.064980979539e+02 
       1.853496789410e-01       5.808540617404e+02 
       1.915482140824e-01       5.588228588831e+02 
       1.979538546819e-01       5.371394227965e+02 
       2.045736504338e-01       5.131704178615e+02 
       2.114148110290e-01       4.858456537243e+02 
       2.184847473990e-01       4.560167033418e+02 
       2.257911212166e-01       4.259774582467e+02 
       2.333419036673e-01       3.983388963451e+02 
       2.411454445954e-01       3.748296569620e+02 
       2.492105532710e-01       3.555982162629e+02 
       2.575465922369e-01       3.392931616630e+02 
       2.661635859910e-01       3.238563672983e+02 
       2.750723466772e-01       3.076607465783e+02 
       2.842846195157e-01       2.903693241440e+02 
       2.938132514526e-01       2.729442875396e+02 
       3.036723875021e-01       2.567964580071e+02 
       3.138777005676e-01       2.427309051448e+02 
       3.244466622632e-01       2.304640196415e+02 
       3.353988645686e-01       2.190013358160e+02 
       3.467564052417e-01       2.075151507146e+02 
       3.585443540964e-01       1.959668837753e+02 
       3.707913229716e-01       1.849359315677e+02 
       3.835301701380e-01       1.748986337093e+02 
       3.967988810215e-01       1.657484858313e+02 
       4.106416829992e-01       1.570200484605e+02 
       4.251104750666e-01       1.484636190696e+02 
       4.402666872049e-01       1.402402769607e+02 
       4.561837355653e-01       1.325549484528e+02 
       4.729503185339e-01       1.253257904724e+02 
       4.906749232146e-01       1.183544850036e+02 
       5.094921133341e-01       1.116256824930e+02 
       5.295715053600e-01       1.052130202798e+02 
       5.511309179607e-01       9.905959867675e+01 
       5.744562135478e-01       9.308223845234e+01 
       5.999322768979e-01       8.728101348154e+01 
       6.280933404780e-01       8.161422896449e+01 
       6.597086323848e-01       7.601751484667e+01 
       6.959363544544e-01       7.044011407086e+01 
       7.386189597829e-01       6.479214537441e+01 
       7.908931886957e-01       5.895768633580e+01 
       8.585543816931e-01       5.275915872788e+01 
       9.532829902274e-01       4.593528595294e+01 
       1.099486375373e+00       3.821137578061e+01 
       1.336133198658e+00       2.989718845673e+01 
       1.675272238167e+00       2.256428215704e+01 
       2.108844493928e+00       1.688538984976e+01 
       2.654876729533e+00       1.249792547538e+01 
       3.342291778868e+00       9.093398713895e+00 
       4.207696054048e+00       6.471607394446e+00 
       5.297175487547e+00       4.488790358635e+00 
       6.668748832006e+00       3.027633991278e+00 
       8.395457369485e+00       1.984482839035e+00 
       1.056925462608e+01       1.265754273378e+00 
