# Matter power spectrum P(k) at redshift z=2
# for k=2.10821e-07 to 10.5808 h/Mpc,
# number of wavenumbers equal to 139
#    1:k (h/Mpc)              2:P (Mpc/h)^3        
       2.108213028521e-07       2.910299896075e-01 
       2.654082955081e-07       3.608010090086e-01 
       3.341292477161e-07       4.472988099494e-01 
       4.206438007735e-07       5.545334417246e-01 
       5.295591701074e-07       6.874763152415e-01 
       6.666754962968e-07       8.522906783108e-01 
       8.392947237086e-07       1.056617344022e+00 
       1.056609455662e-06       1.309928918836e+00 
       1.330192494074e-06       1.623968951385e+00 
       1.674613133368e-06       2.013296361516e+00 
       2.108213028521e-06       2.495960384580e+00 
       2.654082955081e-06       3.094337320189e+00 
       3.341292477161e-06       3.836167868671e+00 
       4.206438007735e-06       4.755843131312e+00 
       5.295591701074e-06       5.895998861628e+00 
       6.666754962968e-06       7.309491822893e+00 
       8.392947237086e-06       9.061849758039e+00 
       1.056609455662e-05       1.123430832775e+01 
       1.330192494074e-05       1.392757536860e+01 
       1.674613133368e-05       1.726649610638e+01 
       2.108213028521e-05       2.140583390084e+01 
       2.654082955081e-05       2.653743114933e+01 
       3.341292477161e-05       3.289907573445e+01 
       4.206438007735e-05       4.078547112730e+01 
       5.295591701074e-05       5.056179325473e+01 
       6.666754962968e-05       6.268041299378e+01 
       8.392947237086e-05       7.770146192432e+01 
       1.056609455662e-04       9.631800488737e+01 
       1.330192494074e-04       1.193866167048e+02 
       1.674613133368e-04       1.479640668632e+02 
       2.108213028521e-04       1.833504479087e+02 
       2.654082955081e-04       2.271381785063e+02 
       3.341292477161e-04       2.812644449360e+02 
       4.206438007735e-04       3.480612402415e+02 
       5.295591701074e-04       4.302917822262e+02 
       6.666754962968e-04       5.311553724476e+02 
       8.392947237086e-04       6.542380986156e+02 
       1.056609455662e-03       8.033898258445e+02 
       1.330192494074e-03       9.825126596369e+02 
       1.674613133368e-03       1.195205027424e+03 
       2.108213028521e-03       1.444094419903e+03 
       2.654082955081e-03       1.729775149102e+03 
       3.341292477161e-03       2.049573618700e+03 
       4.206438007735e-03       2.396134144293e+03 
       5.295591701074e-03       2.755885405807e+03 
       6.666754962968e-03       3.107750196758e+03 
       8.392947237086e-03       3.422501671837e+03 
       1.056609455662e-02       3.662894273974e+03 
       1.330192494074e-02       3.785312373671e+03 
       1.674613133368e-02       3.744438930202e+03 
       2.108213027533e-02       3.504609225776e+03 
       2.654081420985e-02       3.062895477758e+03 
       3.340912646498e-02       2.481799367715e+03 
       4.185527649817e-02       1.910877798603e+03 
       5.014461191212e-02       1.551392035347e+03 
       5.609764292745e-02       1.388675435264e+03 
       6.079541936846e-02       1.294725797446e+03 
       6.489311083470e-02       1.225784759094e+03 
       6.866448043467e-02       1.166321244573e+03 
       7.224634983122e-02       1.109537064848e+03 
       7.571747257916e-02       1.052300223710e+03 
       7.912802900759e-02       9.934255592684e+02 
       8.251254938447e-02       9.329278952903e+02 
       8.589629586310e-02       8.716014446613e+02 
       8.929871220064e-02       8.107172241743e+02 
       9.273542378975e-02       7.517688970919e+02 
       9.621946358689e-02       6.962497635623e+02 
       9.976205821993e-02       6.454641480801e+02 
       1.033731510875e-01       6.003818092138e+02 
       1.070617612640e-01       5.615403807036e+02 
       1.108362360468e-01       5.289952678200e+02 
       1.147044323609e-01       5.023120234521e+02 
       1.186738492122e-01       4.805962472250e+02 
       1.227517256074e-01       4.625628598521e+02 
       1.269451135785e-01       4.466540063551e+02 
       1.312609329270e-01       4.312165595689e+02 
       1.357060123611e-01       4.147373890617e+02 
       1.402871204225e-01       3.961078526578e+02 
       1.450109887548e-01       3.748558433222e+02 
       1.498843297054e-01       3.512661311784e+02 
       1.549138498764e-01       3.263250975711e+02 
       1.601062609948e-01       3.014797603519e+02 
       1.654682893099e-01       2.782702812487e+02 
       1.710066846221e-01       2.579436245114e+02 
       1.767282299825e-01       2.411561265583e+02 
       1.826397530636e-01       2.278315480105e+02 
       1.887481401720e-01       2.171958276659e+02 
       1.950603538620e-01       2.079863559080e+02 
       2.015834550940e-01       1.988164981016e+02 
       2.083246308772e-01       1.886231250466e+02 
       2.152912283349e-01       1.770405766088e+02 
       2.224907961405e-01       1.645104821913e+02 
       2.299311343003e-01       1.520369472968e+02 
       2.376203533108e-01       1.406945394173e+02 
       2.455669438086e-01       1.311399174067e+02 
       2.537798579705e-01       1.233570533469e+02 
       2.622686041312e-01       1.167315991122e+02 
       2.710433563830e-01       1.104082559783e+02 
       2.801150813316e-01       1.037612282971e+02 
       2.894956847423e-01       9.671423532942e+01 
       2.991981815554e-01       8.969648203445e+01 
       3.092368937395e-01       8.326963457945e+01 
       3.196276817594e-01       7.771364814829e+01 
       3.303882171680e-01       7.287119831506e+01 
       3.415383061294e-01       6.833432428907e+01 
       3.531002767620e-01       6.379890871213e+01 
       3.650994473480e-01       5.928134625546e+01 
       3.775646981365e-01       5.501588253107e+01 
       3.905291773289e-01       5.116750495702e+01 
       4.040311828665e-01       4.767213687377e+01 
       4.181152773543e-01       4.434929950942e+01 
       4.328337162223e-01       4.111877565700e+01 
       4.482483028056e-01       3.804928485964e+01 
       4.644328345272e-01       3.520891740734e+01 
       4.814763819701e-01       3.255750507404e+01 
       4.994877647093e-01       3.002456925405e+01 
       5.186017848996e-01       2.761024902115e+01 
       5.389881072990e-01       2.533878215637e+01 
       5.608642370900e-01       2.318667176914e+01 
       5.845150491131e-01       2.112727870998e+01 
       6.103231827725e-01       1.916241633608e+01 
       6.388182374613e-01       1.727835397501e+01 
       6.707601355592e-01       1.545723238084e+01 
       7.072882285461e-01       1.368719817130e+01 
       7.502055232941e-01       1.194750284256e+01 
       8.025619169311e-01       1.021548950243e+01 
       8.699499226401e-01       8.460931606196e+00 
       9.635628531194e-01       6.650286006939e+00 
       1.106854643148e+00       4.780626064473e+00 
       1.339208965642e+00       3.019514636493e+00 
       1.677174630056e+00       1.740956058903e+00 
       2.111145691611e+00       9.832966591640e-01 
       2.657772928234e+00       5.510219430365e-01 
       3.345937875858e+00       3.066865241923e-01 
       4.212286218201e+00       1.696396779237e-01 
       5.302954161844e+00       9.330398165491e-02 
       6.676023751925e+00       5.105278637789e-02 
       8.404615951040e+00       2.780145724499e-02 
       1.058078459713e+01       1.507317374891e-02 
