# Matter power spectrum P(k) at redshift z=2.5
# for k=2.09582e-07 to 10.515 h/Mpc,
# number of wavenumbers equal to 139
#    1:k (h/Mpc)              2:P (Mpc/h)^3        
       2.095819607593e-07       1.499041558010e-01 
       2.638480562535e-07       1.869879725512e-01 
       3.321650228700e-07       2.332457140895e-01 
       4.181709882002e-07       2.909468581360e-01 
       5.264460835204e-07       3.629223136984e-01 
       6.627563524833e-07       4.527033097641e-01 
       8.343608139692e-07       5.646946429384e-01 
       1.050398031311e-06       7.043907832471e-01 
       1.322372774116e-06       8.786454407952e-01 
       1.664768689200e-06       1.096007818401e+00 
       2.095819607593e-06       1.367142045944e+00 
       2.638480562535e-06       1.705350374203e+00 
       3.321650228700e-06       2.127225793713e+00 
       4.181709882002e-06       2.653466091791e+00 
       5.264460835204e-06       3.309889276482e+00 
       6.627563524833e-06       4.128700166506e+00 
       8.343608139692e-06       5.150070248085e+00 
       1.050398031311e-05       6.424108229365e+00 
       1.322372774116e-05       8.013317809194e+00 
       1.664768689200e-05       9.995662957618e+00 
       2.095819607593e-05       1.246839044814e+01 
       2.638480562535e-05       1.555279601921e+01 
       3.321650228700e-05       1.940016559872e+01 
       4.181709882002e-05       2.419917838862e+01 
       5.264460835204e-05       3.018512578192e+01 
       6.627563524833e-05       3.765138002950e+01 
       8.343608139692e-05       4.696363949567e+01 
       1.050398031311e-04       5.857757834883e+01 
       1.322372774116e-04       7.306062789661e+01 
       1.664768689200e-04       9.111868721886e+01 
       2.095819607593e-04       1.136285491061e+02 
       2.638480562535e-04       1.416766294216e+02 
       3.321650228700e-04       1.766040206931e+02 
       4.181709882002e-04       2.200566681317e+02 
       5.264460835204e-04       2.740372469364e+02 
       6.627563524833e-04       3.409519615434e+02 
       8.343608139692e-04       4.236416796981e+02 
       1.050398031311e-03       5.253844926589e+02 
       1.322372774116e-03       6.498557183859e+02 
       1.664768689200e-03       8.010164123759e+02 
       2.095819607593e-03       9.828459128628e+02 
       2.638480562535e-03       1.198801753737e+03 
       3.321650228700e-03       1.451029150173e+03 
       4.181709882002e-03       1.739247404741e+03 
       5.264460835204e-03       2.057960454862e+03 
       6.627563524833e-03       2.398696984184e+03 
       8.343608139692e-03       2.741898579811e+03 
       1.050398031311e-02       3.057893988134e+03 
       1.322372774116e-02       3.304297171508e+03 
       1.664768689189e-02       3.427414541339e+03 
       2.095819561924e-02       3.372445185068e+03 
       2.638453715318e-02       3.110482501967e+03 
       3.318639435998e-02       2.683142545660e+03 
       4.099107394124e-02       2.252741951961e+03 
       4.723641333907e-02       2.007654393137e+03 
       5.183754362384e-02       1.877534654288e+03 
       5.568599926594e-02       1.791145059345e+03 
       5.914804975148e-02       1.723348788148e+03 
       6.239121737941e-02       1.663090951333e+03 
       6.550592696924e-02       1.604618292505e+03 
       6.854716609459e-02       1.544781332964e+03 
       7.155143973481e-02       1.482017714532e+03 
       7.454469346986e-02       1.415891138203e+03 
       7.754642035057e-02       1.346824453008e+03 
       8.057196520030e-02       1.275893642405e+03 
       8.363390054636e-02       1.204628324032e+03 
       8.674289031448e-02       1.134804353049e+03 
       8.990825456262e-02       1.068231978315e+03 
       9.313835137140e-02       1.006551972695e+03 
       9.644084237341e-02       9.510561768956e+02 
       9.982288164227e-02       9.025451204556e+02 
       1.032912525613e-01       8.612313474458e+02 
       1.068524684323e-01       8.266925075453e+02 
       1.105128472141e-01       7.978794356081e+02 
       1.142785674282e-01       7.731899323057e+02 
       1.181557101333e-01       7.506231831933e+02 
       1.221502904778e-01       7.280279857641e+02 
       1.262682814247e-01       7.034372953680e+02 
       1.305156316328e-01       6.754439809221e+02 
       1.348982790735e-01       6.435300666048e+02 
       1.394221616934e-01       6.082375173176e+02 
       1.440932262546e-01       5.710915563744e+02 
       1.489174363713e-01       5.342577664854e+02 
       1.539007806886e-01       5.000108075192e+02 
       1.590492821027e-01       4.701615624687e+02 
       1.643690088945e-01       4.455983686250e+02 
       1.698660886300e-01       4.260523024595e+02 
       1.755467256687e-01       4.101444719366e+02 
       1.814172231142e-01       3.957405679656e+02 
       1.874840100349e-01       3.805899413062e+02 
       1.937536747911e-01       3.631077580573e+02 
       2.002330053158e-01       3.429980291128e+02 
       2.069290372341e-01       3.213716293074e+02 
       2.138491107654e-01       3.002211922527e+02 
       2.210009374541e-01       2.814819920266e+02 
       2.283926779270e-01       2.661485769668e+02 
       2.360330320970e-01       2.538623682762e+02 
       2.439313435424e-01       2.431487772385e+02 
       2.520977202186e-01       2.322262467481e+02 
       2.605431742287e-01       2.200200587030e+02 
       2.692797841424e-01       2.067653692924e+02 
       2.783208843610e-01       1.937280893526e+02 
       2.876812873578e-01       1.822169427292e+02 
       2.973775463904e-01       1.726379058486e+02 
       3.074282686371e-01       1.642869484622e+02 
       3.178544918729e-01       1.560125664019e+02 
       3.286801421031e-01       1.472155868751e+02 
       3.399325954820e-01       1.382924375302e+02 
       3.516433760757e-01       1.300826403722e+02 
       3.638490326740e-01       1.229265427951e+02 
       3.765922545753e-01       1.163665592976e+02 
       3.899233107110e-01       1.097849045994e+02 
       4.039019328705e-01       1.031592403245e+02 
       4.185998191062e-01       9.694056368691e+01 
       4.341040193858e-01       9.128867960336e+01 
       4.505216025646e-01       8.587129207374e+01 
       4.679862281393e-01       8.048901785749e+01 
       4.866676251996e-01       7.534523908600e+01 
       5.067856434322e-01       7.050126565770e+01 
       5.286317449679e-01       6.575457510430e+01 
       5.526030926528e-01       6.111874102234e+01 
       5.792589573663e-01       5.662983937742e+01 
       6.094188228785e-01       5.217094377963e+01 
       6.443433312647e-01       4.774034744569e+01 
       6.860917896484e-01       4.324552329191e+01 
       7.382856335409e-01       3.860259315516e+01 
       8.078670884489e-01       3.366769746208e+01 
       9.092297379133e-01       2.826917709842e+01 
       1.071106342368e+00       2.238212273281e+01 
       1.325124483207e+00       1.675392483127e+01 
       1.666528463968e+00       1.242493950672e+01 
       2.098008841991e+00       9.267404150009e+00 
       2.641236569275e+00       6.908354540582e+00 
       3.325119835591e+00       5.108206828906e+00 
       4.186077858286e+00       3.721191674486e+00 
       5.269959791545e+00       2.655733480151e+00 
       6.634486300710e+00       1.849192195999e+00 
       8.352323398164e+00       1.252928426019e+00 
       1.051495217347e+01       8.250884556715e-01 
