# Matter power spectrum P(k) at redshift z=2
# for k=2.09149e-07 to 10.4943 h/Mpc,
# number of wavenumbers equal to 139
#    1:k (h/Mpc)              2:P (Mpc/h)^3        
       2.091485238857e-07       1.750138174266e-01 
       2.633023915589e-07       2.183093505015e-01 
       3.314780717197e-07       2.723154845979e-01 
       4.173061679404e-07       3.396818458066e-01 
       5.253573393187e-07       4.237135339008e-01 
       6.613857047408e-07       5.285332756505e-01 
       8.326352706956e-07       6.592836921922e-01 
       1.048225701035e-06       8.223796037543e-01 
       1.319637972329e-06       1.025822750104e+00 
       1.661325777733e-06       1.279594366993e+00 
       2.091485238857e-06       1.596144878942e+00 
       2.633023915589e-06       1.991004730518e+00 
       3.314780717197e-06       2.483546323695e+00 
       4.173061679404e-06       3.097934437090e+00 
       5.253573393187e-06       3.864311744129e+00 
       6.613857047408e-06       4.820277576344e+00 
       8.326352706956e-06       6.012732435152e+00 
       1.048225701035e-05       7.500178674764e+00 
       1.319637972329e-05       9.355590058208e+00 
       1.661325777733e-05       1.166999066762e+01 
       2.091485238857e-05       1.455691811550e+01 
       2.633023915589e-05       1.815798879634e+01 
       3.314780717197e-05       2.264983576332e+01 
       4.173061679404e-05       2.825275477363e+01 
       5.253573393187e-05       3.524147312881e+01 
       6.613857047408e-05       4.395855078465e+01 
       8.326352706956e-05       5.483103409553e+01 
       1.048225701035e-04       6.839110620010e+01 
       1.319637972329e-04       8.530160422006e+01 
       1.661325777733e-04       1.063873764717e+02 
       2.091485238857e-04       1.326734797558e+02 
       2.633023915589e-04       1.654310645431e+02 
       3.314780717197e-04       2.062312851405e+02 
       4.173061679404e-04       2.570064304378e+02 
       5.253573393187e-04       3.201153926351e+02 
       6.613857047408e-04       3.984075009172e+02 
       8.326352706956e-04       4.952753196194e+02 
       1.048225701035e-03       6.146844893548e+02 
       1.319637972329e-03       7.611641279052e+02 
       1.661325777733e-03       9.397167868138e+02 
       2.091485238857e-03       1.155545725676e+03 
       2.633023915589e-03       1.413519463112e+03 
       3.314780717197e-03       1.717324425201e+03 
       4.173061679404e-03       2.068188603771e+03 
       5.253573393187e-03       2.462984847041e+03 
       6.613857047408e-03       2.891663027932e+03 
       8.326352706956e-03       3.334002071090e+03 
       1.048225701035e-02       3.755790051232e+03 
       1.319637972329e-02       4.105503363511e+03 
       1.661325777705e-02       4.314636989133e+03 
       2.091485141757e-02       4.309122865908e+03 
       2.632977010110e-02       4.043006107607e+03 
       3.310298755210e-02       3.557986990651e+03 
       4.067460208311e-02       3.058858053674e+03 
       4.652037515888e-02       2.772832308064e+03 
       5.089008097923e-02       2.612760227847e+03 
       5.458305514942e-02       2.502888310914e+03 
       5.792370467156e-02       2.415223211165e+03 
       6.106343550248e-02       2.336837678600e+03 
       6.408520719371e-02       2.260720367606e+03 
       6.704001529745e-02       2.182858907283e+03 
       6.996199356091e-02       2.101121017492e+03 
       7.287556195306e-02       2.014749287528e+03 
       7.579916762124e-02       1.924073651971e+03 
       7.874739966002e-02       1.830288910595e+03 
       8.173225942017e-02       1.735233275197e+03 
       8.476396176893e-02       1.641146434336e+03 
       8.785146108798e-02       1.550408613145e+03 
       9.100280814094e-02       1.465276120497e+03 
       9.422539887805e-02       1.387633247365e+03 
       9.752615181939e-02       1.318780682881e+03 
       1.009116368121e-01       1.259276055036e+03 
       1.043881698023e-01       1.208836891111e+03 
       1.079618833024e-01       1.166316703069e+03 
       1.116387791310e-01       1.129770047162e+03 
       1.154247680201e-01       1.096627453695e+03 
       1.193256993886e-01       1.064000715445e+03 
       1.233473837314e-01       1.029116192448e+03 
       1.274956095044e-01       9.898288115454e+02 
       1.317761560078e-01       9.451092147192e+02 
       1.361948035203e-01       8.953556214331e+02 
       1.407573417730e-01       8.423909038661e+02 
       1.454695777428e-01       7.890859418503e+02 
       1.503373436820e-01       7.386758079798e+02 
       1.553665062544e-01       6.939486507594e+02 
       1.605629776249e-01       6.565280631444e+02 
       1.659327293326e-01       6.264305050950e+02 
       1.714818097630e-01       6.020116752953e+02 
       1.772163660322e-01       5.803634972605e+02 
       1.831426710898e-01       5.581603194146e+02 
       1.892671568531e-01       5.327950976113e+02 
       1.955964542015e-01       5.034050996410e+02 
       2.021374406982e-01       4.712564153756e+02 
       2.088972969639e-01       4.391732861301e+02 
       2.158835727379e-01       4.102183913693e+02 
       2.231042638085e-01       3.862727953242e+02 
       2.305679012263e-01       3.671994715534e+02 
       2.382836545205e-01       3.509740496145e+02 
       2.462614510709e-01       3.347808401397e+02 
       2.545121143613e-01       3.166172633557e+02 
       2.630475246039e-01       2.964766954961e+02 
       2.718808062359e-01       2.762117742502e+02 
       2.810265481285e-01       2.580882221813e+02 
       2.905010641190e-01       2.431119534519e+02 
       3.003227038458e-01       2.303859092736e+02 
       3.105122270468e-01       2.179702577005e+02 
       3.210932588161e-01       2.045894977274e+02 
       3.320928492677e-01       1.906866507869e+02 
       3.435421693777e-01       1.777504076417e+02 
       3.554773865476e-01       1.666221654571e+02 
       3.679407803847e-01       1.566535602191e+02 
       3.809821840092e-01       1.466390343241e+02 
       3.946608732401e-01       1.363509743356e+02 
       4.090480824351e-01       1.266291730798e+02 
       4.242304136945e-01       1.179438550571e+02 
       4.403145466505e-01       1.097107749328e+02 
       4.574338869211e-01       1.014289032719e+02 
       4.757581825737e-01       9.348924997438e+01 
       4.955078246508e-01       8.612677398574e+01 
       5.169758015226e-01       7.891667370637e+01 
       5.405626704432e-01       7.185952178664e+01 
       5.668347181479e-01       6.510859754358e+01 
       5.966257161930e-01       5.841451766246e+01 
       6.312259141424e-01       5.182870329506e+01 
       6.727584785499e-01       4.520190006118e+01 
       7.249904275331e-01       3.845037795398e+01 
       7.952131949589e-01       3.140953397565e+01 
       8.986232510056e-01       2.395537312991e+01 
       1.064835799969e+00       1.634415454715e+01 
       1.322061897749e+00       9.942424479894e+00 
       1.663243103585e+00       5.804796046650e+00 
       2.093884287629e+00       3.350101477893e+00 
       2.636044104056e+00       1.916046206889e+00 
       3.318582909196e+00       1.086967779119e+00 
       4.177848355532e+00       6.121012913535e-01 
       5.259599461402e+00       3.423880674790e-01 
       6.621443417818e+00       1.903534917241e-01 
       8.335903381448e+00       1.052391093780e-01 
       1.049428059717e+01       5.788516924894e-02 
