# Matter power spectrum P(k) at redshift z=2.5
# for k=2.09284e-07 to 10.5006 h/Mpc,
# number of wavenumbers equal to 139
#    1:k (h/Mpc)              2:P (Mpc/h)^3        
       2.092839492322e-07       1.244216748649e-01 
       2.634728819690e-07       1.552015459576e-01 
       3.316927064294e-07       1.935958496173e-01 
       4.175763770308e-07       2.414882709381e-01 
       5.256975124090e-07       3.012284875221e-01 
       6.618139572887e-07       3.757474483915e-01 
       8.331744087108e-07       4.687011707483e-01 
       1.048904435583e-06       5.846501097598e-01 
       1.320492448499e-06       7.292829011768e-01 
       1.662401499497e-06       9.096954535325e-01 
       2.092839492322e-06       1.134739082893e+00 
       2.634728819690e-06       1.415454767987e+00 
       3.316927064294e-06       1.765614829684e+00 
       4.175763770308e-06       2.202398608433e+00 
       5.256975124090e-06       2.747235275676e+00 
       6.618139572887e-06       3.426855122659e+00 
       8.331744087108e-06       4.274600865271e+00 
       1.048904435583e-05       5.332063249485e+00 
       1.320492448499e-05       6.651121072781e+00 
       1.662401499497e-05       8.296485488909e+00 
       2.092839492322e-05       1.034887295468e+01 
       2.634728819690e-05       1.290896158259e+01 
       3.316927064294e-05       1.610232320346e+01 
       4.175763770308e-05       2.008556957631e+01 
       5.256975124090e-05       2.505400726553e+01 
       6.618139572887e-05       3.125116292997e+01 
       8.331744087108e-05       3.898061911784e+01 
       1.048904435583e-04       4.862068765281e+01 
       1.320492448499e-04       6.064253547993e+01 
       1.662401499497e-04       7.563244722199e+01 
       2.092839492322e-04       9.431891967486e+01 
       2.634728819690e-04       1.176051580013e+02 
       3.316927064294e-04       1.466071426952e+02 
       4.175763770308e-04       1.826965428623e+02 
       5.256975124090e-04       2.275460974047e+02 
       6.618139572887e-04       2.831725405447e+02 
       8.331744087108e-04       3.519691717996e+02 
       1.048904435583e-03       4.367181114204e+02 
       1.320492448499e-03       5.405708187326e+02 
       1.662401499497e-03       6.669731336286e+02 
       2.092839492322e-03       8.194664881188e+02 
       2.634728819690e-03       1.001276267623e+03 
       3.316927064294e-03       1.214682549766e+03 
       4.175763770308e-03       1.460106458775e+03 
       5.256975124090e-03       1.734766996765e+03 
       6.618139572887e-03       2.030913980401e+03 
       8.331744087108e-03       2.333655085704e+03 
       1.048904435583e-02       2.618481563724e+03 
       1.320492448499e-02       2.849262045514e+03 
       1.662401499478e-02       2.978871643013e+03 
       2.092839418757e-02       2.957493054718e+03 
       2.634690613421e-02       2.756007210943e+03 
       3.313054073772e-02       2.406233783490e+03 
       4.079181137493e-02       2.049754552339e+03 
       4.678199504308e-02       1.846261219737e+03 
       5.123495986661e-02       1.734591037339e+03 
       5.498414731892e-02       1.658850687685e+03 
       5.836880205177e-02       1.598759407658e+03 
       6.154607545753e-02       1.545121533571e+03 
       6.460160247169e-02       1.493027070931e+03 
       6.758781454664e-02       1.439713972436e+03 
       7.053970055041e-02       1.383753149054e+03 
       7.348223165976e-02       1.324679775885e+03 
       7.643423344524e-02       1.262781572944e+03 
       7.941056873291e-02       1.198934648523e+03 
       8.242344593487e-02       1.134441992257e+03 
       8.548324281951e-02       1.070859886686e+03 
       8.859904649315e-02       1.009815180621e+03 
       9.177901931018e-02       9.528232396856e+02 
       9.503065372693e-02       9.011215669214e+02 
       9.836095384950e-02       8.555316453263e+02 
       1.017765671287e-01       8.163584532547e+02 
       1.052838812474e-01       7.833337117238e+02 
       1.088890961356e-01       7.556088278632e+02 
       1.125982778590e-01       7.318081213961e+02 
       1.164173990847e-01       7.101561886506e+02 
       1.203523694996e-01       6.886928172260e+02 
       1.244090586847e-01       6.655716981238e+02 
       1.285933133606e-01       6.394075874671e+02 
       1.329109705370e-01       6.095954115043e+02 
       1.373678678378e-01       5.764999041433e+02 
       1.419698521068e-01       5.414261058982e+02 
       1.467227872893e-01       5.063393032636e+02 
       1.516325625137e-01       4.733908559571e+02 
       1.567051012569e-01       4.443772421100e+02 
       1.619463724491e-01       4.202797709597e+02 
       1.673624043539e-01       4.009991999195e+02 
       1.729593020529e-01       3.853526347016e+02 
       1.787432693514e-01       3.713670663252e+02 
       1.847206359224e-01       3.568608098791e+02 
       1.908978905084e-01       3.401952874275e+02 
       1.972817210177e-01       3.209214935692e+02 
       2.038790623876e-01       2.999763751532e+02 
       2.106971531481e-01       2.792514505606e+02 
       2.177436017220e-01       2.607053759654e+02 
       2.250264636534e-01       2.454604499680e+02 
       2.325543311754e-01       2.333145489393e+02 
       2.403364368447e-01       2.228884599846e+02 
       2.483827733935e-01       2.123769517375e+02 
       2.567042325269e-01       2.005785117656e+02 
       2.653127661528e-01       1.875939915759e+02 
       2.742215745453e-01       1.746562827350e+02 
       2.834453272753e-01       1.631682959393e+02 
       2.930004245146e-01       1.536751097746e+02 
       3.029053086797e-01       1.455371475080e+02 
       3.131808395587e-01       1.375373604092e+02 
       3.238507503844e-01       1.289479404995e+02 
       3.349422082539e-01       1.201107245351e+02 
       3.464865105823e-01       1.119432694527e+02 
       3.585199610017e-01       1.049009488906e+02 
       3.710849849779e-01       9.853979077560e+01 
       3.842315700905e-01       9.214578944507e+01 
       3.980191527161e-01       8.563175575156e+01 
       4.125191288535e-01       7.950832156385e+01 
       4.278182540246e-01       7.401489204528e+01 
       4.440233363566e-01       6.878729262245e+01 
       4.612678553445e-01       6.355825204895e+01 
       4.797215253683e-01       5.856528235475e+01 
       4.996045004989e-01       5.391884837112e+01 
       5.212091518655e-01       4.937458489184e+01 
       5.449347017224e-01       4.494410021254e+01 
       5.713447146391e-01       4.069964139595e+01 
       6.012674591300e-01       3.650259396640e+01 
       6.359818265407e-01       3.237664296130e+01 
       6.775865304151e-01       2.823444565652e+01 
       7.297928719603e-01       2.402189912414e+01 
       7.997587238019e-01       1.963922192125e+01 
       9.023755018322e-01       1.500814521463e+01 
       1.066945699954e+00       1.027230578959e+01 
       1.323009939649e+00       6.254654622201e+00 
       1.664248648652e+00       3.645909255942e+00 
       2.095146638905e+00       2.100631396155e+00 
       2.637633298322e+00       1.199611397446e+00 
       3.320583586237e+00       6.796052663795e-01 
       4.180367058700e+00       3.822293357700e-01 
       5.262770320825e+00       2.135645334095e-01 
       6.625435293323e+00       1.186108789200e-01 
       8.340928854962e+00       6.551380170340e-02 
       1.050060729348e+01       3.600391104916e-02 
