# Matter power spectrum P(k) at redshift z=2.5
# for k=2.1132e-07 to 10.6054 h/Mpc,
# number of wavenumbers equal to 139
#    1:k (h/Mpc)              2:P (Mpc/h)^3        
       2.113198789486e-07       1.504392134452e-01 
       2.660359656257e-07       1.876553946026e-01 
       3.349194375773e-07       2.340782452739e-01 
       4.216385908699e-07       2.919853436364e-01 
       5.308115366392e-07       3.642177030593e-01 
       6.682521323486e-07       4.543191563711e-01 
       8.412795908993e-07       5.667102219618e-01 
       1.059108255407e-06       7.069049805339e-01 
       1.333338296573e-06       8.817816035134e-01 
       1.678573464074e-06       1.099919805305e+00 
       2.113198789486e-06       1.372021772736e+00 
       2.660359656257e-06       1.711437223112e+00 
       3.349194375773e-06       2.134818345634e+00 
       4.216385908699e-06       2.662936751823e+00 
       5.308115366392e-06       3.321702497227e+00 
       6.682521323486e-06       4.143435141777e+00 
       8.412795908993e-06       5.168449146702e+00 
       1.059108255407e-05       6.447031255944e+00 
       1.333338296573e-05       8.041906659849e+00 
       1.678573464074e-05       1.003131441946e+01 
       2.113198789486e-05       1.251284212554e+01 
       2.660359656257e-05       1.560820602090e+01 
       3.349194375773e-05       1.946920743401e+01 
       4.216385908699e-05       2.428515043269e+01 
       5.308115366392e-05       3.029207019830e+01 
       6.682521323486e-05       3.778419642257e+01 
       8.412795908993e-05       4.712815808744e+01 
       1.059108255407e-04       5.878051637584e+01 
       1.333338296573e-04       7.330927008407e+01 
       1.678573464074e-04       9.141996812087e+01 
       2.113198789486e-04       1.139868978928e+02 
       2.660359656257e-04       1.420893321831e+02 
       3.349194375773e-04       1.770517283956e+02 
       4.216385908699e-04       2.204846673725e+02 
       5.308115366392e-04       2.743197557701e+02 
       6.682521323486e-04       3.408267467835e+02 
       8.412795908993e-04       4.225964739831e+02 
       1.059108255407e-03       5.224730528943e+02 
       1.333338296573e-03       6.434240947424e+02 
       1.678573464074e-03       7.883242344436e+02 
       2.113198789486e-03       9.595515393736e+02 
       2.660359656257e-03       1.158274206563e+03 
       3.349194375773e-03       1.383550921135e+03 
       4.216385908699e-03       1.631306541822e+03 
       5.308115366392e-03       1.893103471984e+03 
       6.682521323486e-03       2.154988102262e+03 
       8.412795908993e-03       2.396661789686e+03 
       1.059108255407e-02       2.591106478609e+03 
       1.333338296573e-02       2.705274884758e+03 
       1.678573464074e-02       2.703127529771e+03 
       2.113198787954e-02       2.554072055025e+03 
       2.660357521026e-02       2.251114064669e+03 
       3.348710593918e-02       1.837591575479e+03 
       4.191670572928e-02       1.426833744628e+03 
       5.001165350507e-02       1.172549623628e+03 
       5.580946269958e-02       1.057805542277e+03 
       6.041707673575e-02       9.915287448520e+02 
       6.445132687763e-02       9.430010233073e+02 
       6.817216667212e-02       9.010126447021e+02 
       7.171067315640e-02       8.605258655897e+02 
       7.514277105662e-02       8.191553278798e+02 
       7.851706408562e-02       7.759632884019e+02 
       8.186711925238e-02       7.309343648409e+02 
       8.521756681055e-02       6.846766155669e+02 
       8.858741147610e-02       6.382003730166e+02 
       9.199195853583e-02       5.927253085099e+02 
       9.544399761506e-02       5.495040986159e+02 
       9.895456340526e-02       5.096674676784e+02 
       1.025334427850e-01       4.740993162609e+02 
       1.061895232792e-01       4.433486038370e+02 
       1.099310385558e-01       4.175789949196e+02 
       1.137657449391e-01       3.965529054340e+02 
       1.177010503906e-01       3.796459128807e+02 
       1.217441099156e-01       3.658916029728e+02 
       1.259018967387e-01       3.540644770114e+02 
       1.301812556730e-01       3.428120301879e+02 
       1.345889432262e-01       3.308398272399e+02 
       1.391316577520e-01       3.171326513817e+02 
       1.438160621388e-01       3.011653610723e+02 
       1.486488009812e-01       2.830365713286e+02 
       1.536365138207e-01       2.634624940347e+02 
       1.587858457995e-01       2.436083126438e+02 
       1.641034569167e-01       2.247939418259e+02 
       1.695960309772e-01       2.081607138697e+02 
       1.752702852584e-01       1.943949501828e+02 
       1.811329818831e-01       1.835741514788e+02 
       1.871909418595e-01       1.751598228930e+02 
       1.934510627374e-01       1.681391322629e+02 
       1.999203408124e-01       1.613081983634e+02 
       2.066058988107e-01       1.536537715152e+02 
       2.135150199812e-01       1.447135659885e+02 
       2.206551895369e-01       1.347410366160e+02 
       2.280341444114e-01       1.245582515814e+02 
       2.356599323541e-01       1.151503250583e+02 
       2.435409814748e-01       1.072095788308e+02 
       2.516861814941e-01       1.008513569714e+02 
       2.601049781645e-01       9.561479113904e+01 
       2.688074826269e-01       9.073577098910e+01 
       2.778045978830e-01       8.556989741938e+01 
       2.871081651225e-01       7.993990753850e+01 
       2.967311333963e-01       7.417722530861e+01 
       3.066877571209e-01       6.882315115277e+01 
       3.169938272121e-01       6.422067131531e+01 
       3.276669433897e-01       6.030035418493e+01 
       3.387268375043e-01       5.669453930991e+01 
       3.501957608364e-01       5.306657660777e+01 
       3.620989525031e-01       4.937337711854e+01 
       3.744652118289e-01       4.583084230657e+01 
       3.873276054596e-01       4.264201388266e+01 
       4.007243511242e-01       3.978849060364e+01 
       4.146999358127e-01       3.709260571342e+01 
       4.293065491441e-01       3.444312544774e+01 
       4.446059466589e-01       3.189565016504e+01 
       4.606719089100e-01       2.954081605909e+01 
       4.775935408973e-01       2.735852651123e+01 
       4.954797803172e-01       2.526924329468e+01 
       5.144656835071e-01       2.326225401207e+01 
       5.347213916421e-01       2.137276692959e+01 
       5.564652537963e-01       1.958589302368e+01 
       5.799836081152e-01       1.786916360995e+01 
       6.056616290932e-01       1.622696604970e+01 
       6.340333692647e-01       1.465137022241e+01 
       6.658667840394e-01       1.312347706432e+01 
       7.023162923671e-01       1.163551391757e+01 
       7.452146695415e-01       1.016860124636e+01 
       7.976745382572e-01       8.703534547042e+00 
       8.654302014052e-01       7.213659503528e+00 
       9.600089169822e-01       5.669347432712e+00 
       1.105528238088e+00       4.070178099984e+00 
       1.341272422937e+00       2.569637665725e+00 
       1.681020080325e+00       1.489316166694e+00 
       2.116048242609e+00       8.470682832372e-01 
       2.663945438540e+00       4.780122918040e-01 
       3.353708606737e+00       2.678973286025e-01 
       4.222068988774e+00       1.492023870475e-01 
       5.315269940316e+00       8.262237745557e-02 
       6.691528398409e+00       4.551386048007e-02 
       8.424135144500e+00       2.495161305346e-02 
       1.060535780580e+01       1.361836174204e-02 
