# Matter power spectrum P(k) at redshift z=0
# for k=2.09149e-07 to 10.4943 h/Mpc,
# number of wavenumbers equal to 139
#    1:k (h/Mpc)              2:P (Mpc/h)^3        
       2.091485238857e-07       1.007329347842e+00 
       2.633023915589e-07       1.256526021293e+00 
       3.314780717197e-07       1.567369842969e+00 
       4.173061679404e-07       1.955111300518e+00 
       5.253573393187e-07       2.438773600226e+00 
       6.613857047408e-07       3.042085974881e+00 
       8.326352706956e-07       3.794647876149e+00 
       1.048225701035e-06       4.733381167828e+00 
       1.319637972329e-06       5.904341565720e+00 
       1.661325777733e-06       7.364978193735e+00 
       2.091485238857e-06       9.186952109367e+00 
       2.633023915589e-06       1.145965206912e+01 
       3.314780717197e-06       1.429458000582e+01 
       4.173061679404e-06       1.783082133878e+01 
       5.253573393187e-06       2.224186842485e+01 
       6.613857047408e-06       2.774413177845e+01 
       8.326352706956e-06       3.460755634509e+01 
       1.048225701035e-05       4.316886312399e+01 
       1.319637972329e-05       5.384806467250e+01 
       1.661325777733e-05       6.716906258156e+01 
       2.091485238857e-05       8.378533311263e+01 
       2.633023915589e-05       1.045119525983e+02 
       3.314780717197e-05       1.303655168733e+02 
       4.173061679404e-05       1.626138798093e+02 
       5.253573393187e-05       2.028380852864e+02 
       6.613857047408e-05       2.530094013794e+02 
       8.326352706956e-05       3.155849816924e+02 
       1.048225701035e-04       3.936263498576e+02 
       1.319637972329e-04       4.909455554469e+02 
       1.661325777733e-04       6.122843200834e+02 
       2.091485238857e-04       7.635314692015e+02 
       2.633023915589e-04       9.519829006635e+02 
       3.314780717197e-04       1.186645543566e+03 
       4.173061679404e-04       1.478581531300e+03 
       5.253573393187e-04       1.841281154906e+03 
       6.613857047408e-04       2.291043575464e+03 
       8.326352706956e-04       2.847327545326e+03 
       1.048225701035e-03       3.532984098456e+03 
       1.319637972329e-03       4.374173213321e+03 
       1.661325777733e-03       5.399691320345e+03 
       2.091485238857e-03       6.639388620603e+03 
       2.633023915589e-03       8.121238865787e+03 
       3.314780717197e-03       9.866416862245e+03 
       4.173061679404e-03       1.188197475573e+04 
       5.253573393187e-03       1.414994257807e+04 
       6.613857047408e-03       1.661257875681e+04 
       8.326352706956e-03       1.915371233550e+04 
       1.048225701035e-02       2.157679555089e+04 
       1.319637972329e-02       2.358582746553e+04 
       1.661325777705e-02       2.478725123834e+04 
       2.091485141757e-02       2.475555098888e+04 
       2.632977010110e-02       2.322671900322e+04 
       3.310298755210e-02       2.044031905071e+04 
       4.067460208311e-02       1.757286397972e+04 
       4.652037515888e-02       1.592966973051e+04 
       5.089008097923e-02       1.501006931554e+04 
       5.458305514942e-02       1.437886463242e+04 
       5.792370467156e-02       1.387523626547e+04 
       6.106343550248e-02       1.342491797634e+04 
       6.408520719371e-02       1.298763093009e+04 
       6.704001529745e-02       1.254032354306e+04 
       6.996199356091e-02       1.207074677187e+04 
       7.287556195306e-02       1.157454903568e+04 
       7.579916762124e-02       1.105362573156e+04 
       7.874739966002e-02       1.051484089680e+04 
       8.173225942017e-02       9.968754909815e+03 
       8.476396176893e-02       9.428234421725e+03 
       8.785146108798e-02       8.906953972113e+03 
       9.100280814094e-02       8.417875618397e+03 
       9.422539887805e-02       7.971824335950e+03 
       9.752615181939e-02       7.576272778544e+03 
       1.009116368121e-01       7.234424292293e+03 
       1.043881698023e-01       6.944655844355e+03 
       1.079618833024e-01       6.700381387868e+03 
       1.116387791310e-01       6.490424288079e+03 
       1.154247680201e-01       6.300023212313e+03 
       1.193256993886e-01       6.112585542025e+03 
       1.233473837314e-01       5.912177305813e+03 
       1.274956095044e-01       5.686474946743e+03 
       1.317761560078e-01       5.429564974966e+03 
       1.361948035203e-01       5.143735058584e+03 
       1.407573417730e-01       4.839457638251e+03 
       1.454695777428e-01       4.533225532100e+03 
       1.503373436820e-01       4.243623882542e+03 
       1.553665062544e-01       3.986670536465e+03 
       1.605629776249e-01       3.771692771217e+03 
       1.659327293326e-01       3.598785139290e+03 
       1.714818097630e-01       3.458501184653e+03 
       1.772163660322e-01       3.334134451632e+03 
       1.831426710898e-01       3.206579259678e+03 
       1.892671568531e-01       3.060858427922e+03 
       1.955964542015e-01       2.892015614333e+03 
       2.021374406982e-01       2.707324365591e+03 
       2.088972969639e-01       2.523009755371e+03 
       2.158835727379e-01       2.356666506382e+03 
       2.231042638085e-01       2.219101298798e+03 
       2.305679012263e-01       2.109526841905e+03 
       2.382836545205e-01       2.016313312374e+03 
       2.462614510709e-01       1.923284826160e+03 
       2.545121143613e-01       1.818936762821e+03 
       2.630475246039e-01       1.703231057428e+03 
       2.718808062359e-01       1.586810970698e+03 
       2.810265481285e-01       1.482692808539e+03 
       2.905010641190e-01       1.396655546657e+03 
       3.003227038458e-01       1.323545609684e+03 
       3.105122270468e-01       1.252218849198e+03 
       3.210932588161e-01       1.175347601054e+03 
       3.320928492677e-01       1.095477041077e+03 
       3.435421693777e-01       1.021159537884e+03 
       3.554773865476e-01       9.572288218747e+02 
       3.679407803847e-01       8.999600923068e+02 
       3.809821840092e-01       8.424275747756e+02 
       3.946608732401e-01       7.833236210436e+02 
       4.090480824351e-01       7.274727784172e+02 
       4.242304136945e-01       6.775764349391e+02 
       4.403145466505e-01       6.302781516367e+02 
       4.574338869211e-01       5.826995710005e+02 
       4.757581825737e-01       5.370869863192e+02 
       4.955078246508e-01       4.947902488001e+02 
       5.169758015226e-01       4.533688914425e+02 
       5.405626704432e-01       4.128262083726e+02 
       5.668347181479e-01       3.740427751089e+02 
       5.966257161930e-01       3.355859073851e+02 
       6.312259141424e-01       2.977510152134e+02 
       6.727584785499e-01       2.596806459198e+02 
       7.249904275331e-01       2.208937785159e+02 
       7.952131949589e-01       1.804447841762e+02 
       8.986232510056e-01       1.376213234196e+02 
       1.064835799969e+00       9.389558165583e+01 
       1.322061897749e+00       5.711824054597e+01 
       1.663243103585e+00       3.334795396578e+01 
       2.093884287629e+00       1.924596654239e+01 
       2.636044104056e+00       1.100745723432e+01 
       3.318582909196e+00       6.244483663141e+00 
       4.177848355532e+00       3.516424618421e+00 
       5.259599461402e+00       1.966951763504e+00 
       6.621443417818e+00       1.093531514157e+00 
       8.335903381448e+00       6.045611991647e-01 
       1.049428059717e+01       3.325207622065e-01 
