# Matter power spectrum P(k) at redshift z=1
# for k=2.08994e-07 to 10.4871 h/Mpc,
# number of wavenumbers equal to 139
#    1:k (h/Mpc)              2:P (Mpc/h)^3        
       2.089937256641e-07       4.891539872845e-01 
       2.631075121441e-07       6.101626193763e-01 
       3.312327330722e-07       7.611067919156e-01 
       4.169973048826e-07       9.493920638438e-01 
       5.249685037664e-07       1.184256007159e+00 
       6.608961897831e-07       1.477221416327e+00 
       8.320190078758e-07       1.842661634391e+00 
       1.047449872111e-06       2.298505730792e+00 
       1.318661261581e-06       2.867118127656e+00 
       1.660096171752e-06       3.576395829897e+00 
       2.089937256641e-06       4.461137088325e+00 
       2.631075121441e-06       5.564748640781e+00 
       3.312327330722e-06       6.941375284327e+00 
       4.169973048826e-06       8.658556244240e+00 
       5.249685037664e-06       1.080053863241e+01 
       6.608961897831e-06       1.347241050613e+01 
       8.320190078758e-06       1.680525618223e+01 
       1.047449872111e-05       2.096258650466e+01 
       1.318661261581e-05       2.614835910366e+01 
       1.660096171752e-05       3.261698122853e+01 
       2.089937256641e-05       4.068578416067e+01 
       2.631075121441e-05       5.075057773944e+01 
       3.312327330722e-05       6.330504126168e+01 
       4.169973048826e-05       7.896488853799e+01 
       5.249685037664e-05       9.849796592956e+01 
       6.608961897831e-05       1.228617072312e+02 
       8.320190078758e-05       1.532496793273e+02 
       1.047449872111e-04       1.911492984975e+02 
       1.318661261581e-04       2.384131515702e+02 
       1.660096171752e-04       2.973466500893e+02 
       2.089937256641e-04       3.708148399687e+02 
       2.631075121441e-04       4.623708240340e+02 
       3.312327330722e-04       5.764070050052e+02 
       4.169973048826e-04       7.183276576604e+02 
       5.249685037664e-04       8.947367536364e+02 
       6.608961897831e-04       1.113628834706e+03 
       8.320190078758e-04       1.384564319516e+03 
       1.047449872111e-03       1.718801077060e+03 
       1.318661261581e-03       2.129319219511e+03 
       1.660096171752e-03       2.630583798220e+03 
       2.089937256641e-03       3.237820800180e+03 
       2.631075121441e-03       3.965720931579e+03 
       3.312327330722e-03       4.826132066426e+03 
       4.169973048826e-03       5.824587113482e+03 
       5.249685037664e-03       6.954987404717e+03 
       6.608961897831e-03       8.192209651210e+03 
       8.320190078758e-03       9.482453991333e+03 
       1.047449872111e-02       1.073149437682e+04 
       1.318661261581e-02       1.179374050367e+04 
       1.660096171712e-02       1.247116403581e+04 
       2.089937126991e-02       1.254391155599e+04 
       2.631017058809e-02       1.186623233779e+04 
       3.307112060973e-02       1.054203559233e+04 
       4.054266510037e-02       9.158501041170e+03 
       4.624019706840e-02       8.359289596296e+03 
       5.052449030715e-02       7.901955161576e+03 
       5.415930986097e-02       7.583837117338e+03 
       5.745420363439e-02       7.328411286771e+03 
       6.055477805661e-02       7.099617244801e+03 
       6.354127294853e-02       6.877551745328e+03 
       6.646321656538e-02       6.650601062837e+03 
       6.935386540116e-02       6.412405087758e+03 
       7.223707219020e-02       6.160490510681e+03 
       7.513089364983e-02       5.895503449545e+03 
       7.804963583223e-02       5.620618901606e+03 
       8.100508556404e-02       5.340945705270e+03 
       8.400728864176e-02       5.062862475120e+03 
       8.706506147425e-02       4.793283818373e+03 
       9.018633865184e-02       4.538897340091e+03 
       9.337841552240e-02       4.305429130050e+03 
       9.664812128145e-02       4.096997913795e+03 
       1.000019446978e-01       3.915608257108e+03 
       1.034461267011e-01       3.760820389001e+03 
       1.069867292493e-01       3.629632716521e+03 
       1.106296868814e-01       3.516625622195e+03 
       1.143808454366e-01       3.414430216238e+03 
       1.182459911605e-01       3.314584124461e+03 
       1.222308725935e-01       3.208777656115e+03 
       1.263412170820e-01       3.090367016410e+03 
       1.305827433871e-01       2.955857820428e+03 
       1.349611716223e-01       2.805927293520e+03 
       1.394822315905e-01       2.645557051289e+03 
       1.441516704881e-01       2.483057037008e+03 
       1.489752608796e-01       2.328121747784e+03 
       1.539588098041e-01       2.189412311797e+03 
       1.591081698497e-01       2.072318909750e+03 
       1.644292530166e-01       1.977481131592e+03 
       1.699280481774e-01       1.900452115395e+03 
       1.756106429355e-01       1.832729789911e+03 
       1.814832506835e-01       1.764192111728e+03 
       1.875522436631e-01       1.686517727343e+03 
       1.938241928504e-01       1.596443150887e+03 
       2.003059155239e-01       1.497230882158e+03 
       2.070045314365e-01       1.397248453822e+03 
       2.139275286196e-01       1.306084293330e+03 
       2.210828399976e-01       1.230082739078e+03 
       2.284789322216e-01       1.169463960857e+03 
       2.361249084429e-01       1.118373378588e+03 
       2.440306271735e-01       1.068026516651e+03 
       2.522068399628e-01       1.011701709445e+03 
       2.606653513772e-01       9.487628676554e+02 
       2.694192057899e-01       8.847123047855e+02 
       2.784829068212e-01       8.268984410767e+02 
       2.878726770497e-01       7.790503788299e+02 
       2.976067679851e-01       7.387677317072e+02 
       3.077058334823e-01       6.998586954031e+02 
       3.181933841221e-01       6.578057816905e+02 
       3.290963460625e-01       6.136179406231e+02 
       3.404457562127e-01       5.721370103842e+02 
       3.522776374185e-01       5.365032665867e+02 
       3.646341143821e-01       5.048960179681e+02 
       3.775648560167e-01       4.732077257087e+02 
       3.911289672300e-01       4.403420425497e+02 
       4.053975100104e-01       4.090631785541e+02 
       4.204569224102e-01       3.812376337094e+02 
       4.364137459578e-01       3.550051165522e+02 
       4.534013055149e-01       3.284502660899e+02 
       4.715893818780e-01       3.028512755440e+02 
       4.911986140361e-01       2.792142048351e+02 
       5.125226420662e-01       2.560429293126e+02 
       5.359634391097e-01       2.332452389963e+02 
       5.620901887593e-01       2.114802749674e+02 
       5.917425370923e-01       1.898275137142e+02 
       6.262228977654e-01       1.685042670255e+02 
       6.676807156270e-01       1.469911903489e+02 
       7.199430896917e-01       1.250286583942e+02 
       7.904457361883e-01       1.020621827836e+02 
       8.947120049244e-01       7.769204294180e+01 
       1.062657237796e+00       5.284666966938e+01 
       1.321013792411e+00       3.213256685550e+01 
       1.662095627089e+00       1.879846267381e+01 
       2.092442739034e+00       1.087125881653e+01 
       2.634229311250e+00       6.229144516214e+00 
       3.316298220419e+00       3.539675331553e+00 
       4.174972102773e+00       1.996301725771e+00 
       5.255978473713e+00       1.118195034392e+00 
       6.616884864400e+00       6.224468282744e-01 
       8.330164502709e+00       3.445189192779e-01 
       1.048705577689e+01       1.896942868224e-01 
