# Matter power spectrum P(k) at redshift z=0.5
# for k=2.08534e-07 to 10.4645 h/Mpc,
# number of wavenumbers equal to 139
#    1:k (h/Mpc)              2:P (Mpc/h)^3        
       2.085343160713e-07       7.216266002710e-01 
       2.625291497333e-07       9.001451238457e-01 
       3.305046179359e-07       1.122826186378e+00 
       4.160806622348e-07       1.400594871346e+00 
       5.238145190436e-07       1.747078946992e+00 
       6.594434090907e-07       2.179277465418e+00 
       8.301900653445e-07       2.718394761243e+00 
       1.045147369881e-06       3.390880766799e+00 
       1.315762583013e-06       4.229728681018e+00 
       1.656446951643e-06       5.276093656107e+00 
       2.085343160713e-06       6.581311909681e+00 
       2.625291497333e-06       8.209419312962e+00 
       3.305046179359e-06       1.024029299689e+01 
       4.160806622348e-06       1.277357006495e+01 
       5.238145190436e-06       1.593353557640e+01 
       6.594434090907e-06       1.987521943864e+01 
       8.301900653445e-06       2.479200097795e+01 
       1.045147369881e-05       3.092509358561e+01 
       1.315762583013e-05       3.857537339330e+01 
       1.656446951643e-05       4.811812959627e+01 
       2.085343160713e-05       6.002145473257e+01 
       2.625291497333e-05       7.486916654317e+01 
       3.305046179359e-05       9.338936506607e+01 
       4.160806622348e-05       1.164899846391e+02 
       5.238145190436e-05       1.453030035220e+02 
       6.594434090907e-05       1.812393195799e+02 
       8.301900653445e-05       2.260566691326e+02 
       1.045147369881e-04       2.819433046671e+02 
       1.315762583013e-04       3.516203385723e+02 
       1.656446951643e-04       4.384654686417e+02 
       2.085343160713e-04       5.466597896959e+02 
       2.625291497333e-04       6.813568349397e+02 
       3.305046179359e-04       8.488678569027e+02 
       4.160806622348e-04       1.056848722362e+03 
       5.238145190436e-04       1.314462089716e+03 
       6.594434090907e-04       1.632477302552e+03 
       8.301900653445e-04       2.023262762148e+03 
       1.045147369881e-03       2.500600225328e+03 
       1.315762583013e-03       3.079139654665e+03 
       1.656446951643e-03       3.773164538494e+03 
       2.085343160713e-03       4.594491789096e+03 
       2.625291497333e-03       5.549399171514e+03 
       3.305046179359e-03       6.634394641242e+03 
       4.160806622348e-03       7.831176581298e+03 
       5.238145190436e-03       9.100781788855e+03 
       6.594434090907e-03       1.037799632851e+04 
       8.301900653445e-03       1.156728454826e+04 
       1.045147369881e-02       1.254109336718e+04 
       1.315762583013e-02       1.314342343444e+04 
       1.656446951643e-02       1.320468256682e+04 
       2.085343157629e-02       1.258146051534e+04 
       2.625287901269e-02       1.123957461106e+04 
       3.304341689461e-02       9.373475736525e+03 
       4.129006940692e-02       7.500882169814e+03 
       4.891971388713e-02       6.331008470032e+03 
       5.437929992494e-02       5.759795296271e+03 
       5.876735091073e-02       5.400879893866e+03 
       6.263246913881e-02       5.124021185809e+03 
       6.620940040805e-02       4.880314300556e+03 
       6.961822702412e-02       4.647661201049e+03 
       7.292922120893e-02       4.415714296844e+03 
       7.618771082533e-02       4.180511383498e+03 
       7.942518686792e-02       3.942058537593e+03 
       8.266486871727e-02       3.702940769465e+03 
       8.592474596306e-02       3.467318169996e+03 
       8.921935742186e-02       3.240084949906e+03 
       9.256088928388e-02       3.026131093637e+03 
       9.595988333978e-02       2.829710358606e+03 
       9.942571049531e-02       2.653938158765e+03 
       1.029668969317e-01       2.500438665238e+03 
       1.065913543513e-01       2.369148002592e+03 
       1.103065457926e-01       2.258270903138e+03 
       1.141196069439e-01       2.164394230719e+03 
       1.180374359608e-01       2.082771913069e+03 
       1.220667605109e-01       2.007809183750e+03 
       1.262141880612e-01       1.933759560942e+03 
       1.304862436715e-01       1.855593182472e+03 
       1.348893984075e-01       1.769903704317e+03 
       1.394300907263e-01       1.675630356682e+03 
       1.441147426780e-01       1.574341513295e+03 
       1.489497724311e-01       1.469905684267e+03 
       1.539416044056e-01       1.367560369526e+03 
       1.590966781520e-01       1.272604376935e+03 
       1.644214570245e-01       1.189075097400e+03 
       1.699224376333e-01       1.118763843787e+03 
       1.756061610313e-01       1.060801750432e+03 
       1.814792265612e-01       1.011913068573e+03 
       1.875483092776e-01       9.673308525141e+02 
       1.938201818478e-01       9.222391921279e+02 
       2.003017418291e-01       8.733710291256e+02 
       2.070000452209e-01       8.201436480525e+02 
       2.139223472024e-01       7.647327752919e+02 
       2.210761509945e-01       7.109405622312e+02 
       2.284692658401e-01       6.623746413799e+02 
       2.361098751869e-01       6.208350549388e+02 
       2.440066163036e-01       5.856539555151e+02 
       2.521686727650e-01       5.542449082624e+02 
       2.606058815462e-01       5.235821227414e+02 
       2.693288568720e-01       4.918529166196e+02 
       2.783491335286e-01       4.593071494801e+02 
       2.876793330865e-01       4.277390971589e+02 
       2.973333574685e-01       3.990042338783e+02 
       3.073266156028e-01       3.736923057427e+02 
       3.176762906212e-01       3.508927070677e+02 
       3.284016573614e-01       3.291127556786e+02 
       3.395244630036e-01       3.075228641993e+02 
       3.510693878300e-01       2.864479870384e+02 
       3.630646087879e-01       2.667387464577e+02 
       3.755424964251e-01       2.487693581008e+02 
       3.885404868599e-01       2.321226915248e+02 
       4.021021862883e-01       2.161806163756e+02 
       4.162787885411e-01       2.008061590752e+02 
       4.311309202204e-01       1.862876117710e+02 
       4.467310792759e-01       1.727602396481e+02 
       4.631669119910e-01       1.599996372124e+02 
       4.805456982624e-01       1.477976050558e+02 
       4.990006175427e-01       1.361962279526e+02 
       5.186997059081e-01       1.252314456796e+02 
       5.398589981518e-01       1.147816872163e+02 
       5.627623938789e-01       1.047721341401e+02 
       5.877927390984e-01       9.519136854131e+01 
       6.154824417572e-01       8.596040910330e+01 
       6.465998602936e-01       7.700994594434e+01 
       6.823051381205e-01       6.826712753165e+01 
       7.244502240660e-01       5.963175052395e+01 
       7.762014717447e-01       5.098133165829e+01 
       8.434380115338e-01       4.215520383755e+01 
       9.380614450040e-01       3.297719878775e+01 
       1.084871151628e+00       2.348019435787e+01 
       1.322018226259e+00       1.469879002024e+01 
       1.658633893979e+00       8.514348456877e+00 
       2.087944691614e+00       4.850757299607e+00 
       2.628565801085e+00       2.741699703303e+00 
       3.309168282864e+00       1.538757989615e+00 
       4.165996043200e+00       8.581008108616e-01 
       5.244678284219e+00       4.757385485460e-01 
       6.602658768688e+00       2.623469855729e-01 
       8.312254909307e+00       1.439631562590e-01 
       1.046450893464e+01       7.864309242411e-02 
