# Matter power spectrum P(k) at redshift z=0.5
# for k=2.09412e-07 to 10.5066 h/Mpc,
# number of wavenumbers equal to 139
#    1:k (h/Mpc)              2:P (Mpc/h)^3        
       2.094120343273e-07       5.191903847081e-01 
       2.636341315502e-07       6.476295262759e-01 
       3.318957076248e-07       8.078423937187e-01 
       4.178319403943e-07       1.007689282739e+00 
       5.260192476216e-07       1.256974996258e+00 
       6.622189979237e-07       1.567929883107e+00 
       8.336843246590e-07       1.955809877730e+00 
       1.049546381728e-06       2.439644978830e+00 
       1.321300610814e-06       3.043172888273e+00 
       1.663418915572e-06       3.796003614972e+00 
       2.094120343273e-06       4.735072177666e+00 
       2.636341315502e-06       5.906450673016e+00 
       3.318957076248e-06       7.367608604156e+00 
       4.178319403943e-06       9.190232339829e+00 
       5.260192476216e-06       1.146374199509e+01 
       6.622189979237e-06       1.429967819413e+01 
       8.336843246590e-06       1.783717378005e+01 
       1.049546381728e-05       2.224977860563e+01 
       1.321300610814e-05       2.775397162639e+01 
       1.663418915572e-05       3.461977667504e+01 
       2.094120343273e-05       4.318400033899e+01 
       2.636341315502e-05       5.386673661121e+01 
       3.318957076248e-05       6.719193861666e+01 
       4.178319403943e-05       8.381304804159e+01 
       5.260192476216e-05       1.045449028829e+02 
       6.622189979237e-05       1.304034165419e+02 
       8.336843246590e-05       1.626548325846e+02 
       1.049546381728e-04       2.028766930248e+02 
       1.321300610814e-04       2.530329687853e+02 
       1.663418915572e-04       3.155659917605e+02 
       2.094120343273e-04       3.935077085930e+02 
       2.636341315502e-04       4.906120145817e+02 
       3.318957076248e-04       6.115080248549e+02 
       4.178319403943e-04       7.618705515029e+02 
       5.260192476216e-04       9.485986341958e+02 
       6.622189979237e-04       1.179986603259e+03 
       8.336843246590e-04       1.465865238881e+03 
       1.049546381728e-03       1.817673161012e+03 
       1.321300610814e-03       2.248360046019e+03 
       1.663418915572e-03       2.771935886662e+03 
       2.094120343273e-03       3.402496417345e+03 
       2.636341315502e-03       4.152518328924e+03 
       3.318957076248e-03       5.030189207782e+03 
       4.178319403943e-03       6.035526169349e+03 
       5.260192476216e-03       7.154865636651e+03 
       6.622189979237e-03       8.353754533372e+03 
       8.336843246590e-03       9.568470352886e+03 
       1.049546381728e-02       1.069667343362e+04 
       1.321300610814e-02       1.159039460551e+04 
       1.663418915559e-02       1.206003490467e+04 
       2.094120287774e-02       1.190930260380e+04 
       2.636310300368e-02       1.102996549999e+04 
       3.315619507256e-02       9.561056788398e+03 
       4.090234220065e-02       8.074146437199e+03 
       4.704109112093e-02       7.226279973780e+03 
       5.157994879282e-02       6.769597740600e+03 
       5.538666038538e-02       6.463411056538e+03 
       5.881612869814e-02       6.221816023576e+03 
       6.203152298028e-02       6.006550752504e+03 
       6.512126116951e-02       5.797491874336e+03 
       6.813926087222e-02       5.583501798613e+03 
       7.112139266424e-02       5.358964724500e+03 
       7.409319438065e-02       5.122215015299e+03 
       7.707387967333e-02       4.874631240059e+03 
       8.007859150174e-02       4.619932681897e+03 
       8.311974979460e-02       4.363494405090e+03 
       8.620789845416e-02       4.111625119668e+03 
       8.935225974463e-02       3.870818631548e+03 
       9.256110950431e-02       3.647025364371e+03 
       9.584203821388e-02       3.444999756263e+03 
       9.920213681784e-02       3.267772938701e+03 
       1.026481314314e-01       3.116283204602e+03 
       1.061864823942e-01       2.989183731989e+03 
       1.098234578713e-01       2.882848473794e+03 
       1.135651889158e-01       2.791615443042e+03 
       1.174177108132e-01       2.708324610907e+03 
       1.213869941603e-01       2.625198820141e+03 
       1.254789682345e-01       2.535046620866e+03 
       1.296995386096e-01       2.432631399332e+03 
       1.340546005769e-01       2.315893898404e+03 
       1.385500496664e-01       2.186622680119e+03 
       1.431917903885e-01       2.050234795040e+03 
       1.479857442049e-01       1.914579496763e+03 
       1.529378576647e-01       1.788024539249e+03 
       1.580541116006e-01       1.677349503107e+03 
       1.633405322472e-01       1.586017920885e+03 
       1.688032051304e-01       1.513249281210e+03 
       1.744482925616e-01       1.454123338259e+03 
       1.802820555653e-01       1.400827587127e+03 
       1.863108810621e-01       1.344985222339e+03 
       1.925413151373e-01       1.280563148268e+03 
       1.989801032376e-01       1.206254500570e+03 
       2.056342381746e-01       1.126029788481e+03 
       2.125110168760e-01       1.047280728399e+03 
       2.196181069256e-01       9.773435711447e+02 
       2.269636240869e-01       9.201356630177e+02 
       2.345562222262e-01       8.744948138762e+02 
       2.424051973642e-01       8.349576790581e+02 
       2.505206080084e-01       7.947487100861e+02 
       2.589134144939e-01       7.496448795239e+02 
       2.675956408197e-01       7.003842842037e+02 
       2.765805634792e-01       6.517419936289e+02 
       2.858829331131e-01       6.088083489007e+02 
       2.955192365854e-01       5.732912807021e+02 
       3.055080094357e-01       5.425801358112e+02 
       3.158702118342e-01       5.122051000016e+02 
       3.266296854691e-01       4.797349811859e+02 
       3.378137147188e-01       4.466330294586e+02 
       3.494537237132e-01       4.162093450156e+02 
       3.615861525614e-01       3.898984551905e+02 
       3.742535727964e-01       3.659545358102e+02 
       3.875061266191e-01       3.418961552766e+02 
       4.014034110681e-01       3.175755119564e+02 
       4.160169838269e-01       2.948073298524e+02 
       4.314337538294e-01       2.742966425535e+02 
       4.477606576793e-01       2.547213591169e+02 
       4.651312488468e-01       2.352440003947e+02 
       4.837152085460e-01       2.167040939584e+02 
       5.037324555351e-01       1.993971868697e+02 
       5.254747481381e-01       1.824964458323e+02 
       5.493399846196e-01       1.660719735932e+02 
       5.758890339913e-01       1.503191092963e+02 
       6.059447262214e-01       1.347811128921e+02 
       6.407747545902e-01       1.195174124924e+02 
       6.824537927736e-01       1.042252661317e+02 
       7.346385296065e-01       8.870022579228e+01 
       8.043561406595e-01       7.258423506767e+01 
       9.061973875508e-01       5.558443745969e+01 
       1.069127184861e+00       3.817413533359e+01 
       1.323943628106e+00       2.327456637337e+01 
       1.665208209431e+00       1.354865311397e+01 
       2.096350290723e+00       7.794524168626e+00 
       2.639148590509e+00       4.445195645766e+00 
       3.322491226069e+00       2.515206478081e+00 
       4.182768634962e+00       1.413044817123e+00 
       5.265793726209e+00       7.887118275386e-01 
       6.629241535191e+00       4.376306939536e-01 
       8.345720629573e+00       2.415134811287e-01 
       1.050663978030e+01       1.326201524368e-01 
