# Matter power spectrum P(k) at redshift z=1
# for k=2.27473e-07 to 11.4158 h/Mpc,
# number of wavenumbers equal to 139
#    1:k (h/Mpc)              2:P (Mpc/h)^3        
       2.274729893786e-07       3.087651672831e-01 
       2.863715268255e-07       3.851485792913e-01 
       3.605203923349e-07       4.804279880578e-01 
       4.538682833804e-07       5.992779515751e-01 
       5.713863155550e-07       7.475294363482e-01 
       7.193327526036e-07       9.324558935010e-01 
       9.055862817885e-07       1.163130105770e+00 
       1.140065582716e-06       1.450869311873e+00 
       1.435257533193e-06       1.809790447173e+00 
       1.806882181005e-06       2.257502740674e+00 
       2.274729893786e-06       2.815971648198e+00 
       2.863715268255e-06       3.512596503749e+00 
       3.605203923349e-06       4.381554760227e+00 
       4.538682833804e-06       5.465478758000e+00 
       5.713863155550e-06       6.817547276546e+00 
       7.193327526036e-06       8.504094452055e+00 
       9.055862817885e-06       1.060786400410e+01 
       1.140065582716e-05       1.323206831672e+01 
       1.435257533193e-05       1.650545129766e+01 
       1.806882181005e-05       2.058860297461e+01 
       2.274729893786e-05       2.568183476839e+01 
       2.863715268255e-05       3.203500011866e+01 
       3.605203923349e-05       3.995973891244e+01 
       4.538682833804e-05       4.984473982057e+01 
       5.713863155550e-05       6.217475621610e+01 
       7.193327526036e-05       7.755428286755e+01 
       9.055862817885e-05       9.673700411822e+01 
       1.140065582716e-04       1.206623587280e+02 
       1.435257533193e-04       1.505008203015e+02 
       1.806882181005e-04       1.877097364614e+02 
       2.274729893786e-04       2.341017392685e+02 
       2.863715268255e-04       2.919277095486e+02 
       3.605203923349e-04       3.639758374640e+02 
       4.538682833804e-04       4.536871746145e+02 
       5.713863155550e-04       5.652859450059e+02 
       7.193327526036e-04       7.039198072583e+02 
       9.055862817885e-04       8.758016659110e+02 
       1.140065582716e-03       1.088339080663e+03 
       1.435257533193e-03       1.350219171786e+03 
       1.806882181005e-03       1.671362427364e+03 
       2.274729893786e-03       2.062641405053e+03 
       2.863715268255e-03       2.535262377065e+03 
       3.605203923349e-03       3.099554632412e+03 
       4.538682833804e-03       3.752303263950e+03 
       5.713863155550e-03       4.510932444831e+03 
       7.193327526036e-03       5.358511684800e+03 
       9.055862817885e-03       6.267764421188e+03 
       1.140065582716e-02       7.185689110825e+03 
       1.435257533193e-02       8.024897517652e+03 
       1.806882180891e-02       8.659983802834e+03 
       2.274729602416e-02       8.942260555526e+03 
       2.863607426421e-02       8.754605923953e+03 
       3.596918025633e-02       8.121625586978e+03 
       4.381282379099e-02       7.381461379394e+03 
       4.963539860057e-02       6.921806654314e+03 
       5.408184690777e-02       6.632429633622e+03 
       5.788990367264e-02       6.416954677140e+03 
       6.135948076435e-02       6.236147434758e+03 
       6.463445692387e-02       6.070476561794e+03 
       6.779525845182e-02       5.908726641691e+03 
       7.089204494082e-02       5.744122845983e+03 
       7.395876491690e-02       5.572796666158e+03 
       7.701992336398e-02       5.393092177195e+03 
       8.009416984056e-02       5.205184609862e+03 
       8.319634748758e-02       5.010788098824e+03 
       8.633873382452e-02       4.812852383218e+03 
       8.953182855502e-02       4.615205338438e+03 
       9.278487353701e-02       4.422134680452e+03 
       9.610620714215e-02       4.237925301785e+03 
       9.950351222427e-02       4.066385173793e+03 
       1.029839934370e-01       3.910398137345e+03 
       1.065545062480e-01       3.771543124308e+03 
       1.102216520691e-01       3.649817379180e+03 
       1.139918490754e-01       3.543500881545e+03 
       1.178713852470e-01       3.449204658461e+03 
       1.218664582123e-01       3.362151420735e+03 
       1.259832052017e-01       3.276729831489e+03 
       1.302277255748e-01       3.187326308169e+03 
       1.346060978266e-01       3.089358195524e+03 
       1.391243926042e-01       2.980318752597e+03 
       1.437886830183e-01       2.860543127761e+03 
       1.486050533718e-01       2.733388664792e+03 
       1.535796073246e-01       2.604642520648e+03 
       1.587184764463e-01       2.481210341241e+03 
       1.640278300682e-01       2.369395818151e+03 
       1.695138873208e-01       2.273228587586e+03 
       1.751829322251e-01       2.193284221572e+03 
       1.810413326960e-01       2.126333600933e+03 
       1.870955643074e-01       2.066042682867e+03 
       1.933522396694e-01       2.004782763892e+03 
       1.998181442717e-01       1.936249856126e+03 
       2.065002796687e-01       1.858011699484e+03 
       2.134059149234e-01       1.772700384695e+03 
       2.205426472985e-01       1.686939932864e+03 
       2.279184732991e-01       1.608295007143e+03 
       2.355418713417e-01       1.541710698074e+03 
       2.434218975769e-01       1.487186173736e+03 
       2.515682967324e-01       1.439816289980e+03 
       2.599916303184e-01       1.392394394528e+03 
       2.687034251669e-01       1.339562538250e+03 
       2.777163461120e-01       1.281117917473e+03 
       2.870443977300e-01       1.221920904172e+03 
       2.967031615228e-01       1.168146301692e+03 
       3.067100768719e-01       1.122669123702e+03 
       3.170847766911e-01       1.083107301175e+03 
       3.278494922067e-01       1.044054408288e+03 
       3.390295460635e-01       1.001882419497e+03 
       3.506539595362e-01       9.578743186797e+02 
       3.627562088242e-01       9.163749906510e+02 
       3.753751784690e-01       8.798426799247e+02 
       3.885563787739e-01       8.463270840392e+02 
       4.023535217774e-01       8.122421671717e+02 
       4.168305917436e-01       7.769965332157e+02 
       4.320646094404e-01       7.432038053847e+02 
       4.481493884850e-01       7.122226557296e+02 
       4.652007408909e-01       6.821591868039e+02 
       4.833638511101e-01       6.515353775532e+02 
       5.028239844369e-01       6.216565005096e+02 
       5.238224838587e-01       5.931234247498e+02 
       5.466814577628e-01       5.645126065161e+02 
       5.718433463239e-01       5.358934939843e+02 
       5.999371965896e-01       5.075677250957e+02 
       6.318955977409e-01       4.786065243393e+02 
       6.691740377647e-01       4.489625806693e+02 
       7.141928554090e-01       4.177572648902e+02 
       7.713009162400e-01       3.840710449414e+02 
       8.490288718885e-01       3.462244653980e+02 
       9.652439938253e-01       3.017802095095e+02 
       1.153235669088e+00       2.492526199949e+02 
       1.437708593747e+00       1.948438016866e+02 
       1.809287258737e+00       1.470905925176e+02 
       2.277750750939e+00       1.068441243335e+02 
       2.867518289673e+00       7.425432317963e+01 
       3.609991643652e+00       4.951427501649e+01 
       4.544710216558e+00       3.191759640774e+01 
       5.721451180865e+00       2.004684137458e+01 
       7.202880283931e+00       1.235121485740e+01 
       9.067889027552e+00       7.504623040587e+00 
       1.141579592811e+01       4.514710147615e+00 
