# Matter power spectrum P(k) at redshift z=1.5
# for k=2.09039e-07 to 10.4892 h/Mpc,
# number of wavenumbers equal to 139
#    1:k (h/Mpc)              2:P (Mpc/h)^3        
       2.090385976013e-07       2.521827129042e-01 
       2.631640025661e-07       3.145685585054e-01 
       3.313038503000e-07       3.923876337220e-01 
       4.170868361679e-07       4.894578649861e-01 
       5.250812169766e-07       6.105416707605e-01 
       6.610380873076e-07       7.615796130107e-01 
       8.321976462753e-07       9.499818503947e-01 
       1.047674764531e-06       1.184991691779e+00 
       1.318944384364e-06       1.478139086500e+00 
       1.660452602219e-06       1.843806300002e+00 
       2.090385976013e-06       2.299933526345e+00 
       2.631640025661e-06       2.868899054573e+00 
       3.313038503000e-06       3.578617166596e+00 
       4.170868361679e-06       4.463907626976e+00 
       5.250812169766e-06       5.568203931933e+00 
       6.610380873076e-06       6.945684106313e+00 
       8.321976462753e-06       8.663928523958e+00 
       1.047674764531e-05       1.080723503465e+01 
       1.318944384364e-05       1.348075381945e+01 
       1.660452602219e-05       1.681564437918e+01 
       2.090385976013e-05       2.097550678522e+01 
       2.631640025661e-05       2.616440095298e+01 
       3.313038503000e-05       3.263684391540e+01 
       4.170868361679e-05       4.071026870759e+01 
       5.250812169766e-05       5.078054258769e+01 
       6.610380873076e-05       6.334127925137e+01 
       8.321976462753e-05       7.900783998378e+01 
       1.047674764531e-04       9.854709806565e+01 
       1.318944384364e-04       1.229142248095e+02 
       1.660452602219e-04       1.532979093785e+02 
       2.090385976013e-04       1.911754747247e+02 
       2.631640025661e-04       2.383791596319e+02 
       3.313038503000e-04       2.971741648621e+02 
       4.170868361679e-04       3.703475682399e+02 
       5.250812169766e-04       4.613045633118e+02 
       6.610380873076e-04       5.741647105627e+02 
       8.321976462753e-04       7.138469106014e+02 
       1.047674764531e-03       8.861280608945e+02 
       1.318944384364e-03       1.097648807135e+03 
       1.660452602219e-03       1.355796255593e+03 
       2.090385976013e-03       1.668320185554e+03 
       2.631640025661e-03       2.042632840180e+03 
       3.313038503000e-03       2.484612222488e+03 
       4.170868361679e-03       2.996792931116e+03 
       5.250812169766e-03       3.575627960289e+03 
       6.610380873076e-03       4.207705754551e+03 
       8.321976462753e-03       4.864856615371e+03 
       1.047674764531e-02       5.498253738425e+03 
       1.318944384364e-02       6.033024126638e+03 
       1.660452602183e-02       6.368006275254e+03 
       2.090385856396e-02       6.391758272069e+03 
       2.631585312453e-02       6.031793190683e+03 
       3.308038499190e-02       5.343755801919e+03 
       4.058051214142e-02       4.628411743084e+03 
       4.631911414751e-02       4.216313113270e+03 
       5.062707610004e-02       3.982007544526e+03 
       5.427806205555e-02       3.819649211438e+03 
       5.758569977020e-02       3.689522946298e+03 
       6.069719285375e-02       3.573021690896e+03 
       6.369353212039e-02       3.459926942704e+03 
       6.662465177578e-02       3.344309527613e+03 
       6.952405137816e-02       3.222950372697e+03 
       7.241574101271e-02       3.094628877777e+03 
       7.531788580804e-02       2.959721599143e+03 
       7.824487047560e-02       2.819892859973e+03 
       8.120854150444e-02       2.677784009415e+03 
       8.421899174427e-02       2.536668919776e+03 
       8.728507602625e-02       2.400075837403e+03 
       9.041476131079e-02       2.271397305791e+03 
       9.361537099163e-02       2.153517330618e+03 
       9.689375917763e-02       2.048486412751e+03 
       1.002564372602e-01       1.957269569769e+03 
       1.037096671076e-01       1.879585086163e+03 
       1.072595303769e-01       1.813851836176e+03 
       1.109119803966e-01       1.757269542762e+03 
       1.146728811323e-01       1.706063876916e+03 
       1.185480364791e-01       1.655927785012e+03 
       1.225432122882e-01       1.602659225266e+03 
       1.266641529825e-01       1.542930336293e+03 
       1.309165942417e-01       1.475034256049e+03 
       1.353062729943e-01       1.399389312621e+03 
       1.398389357924e-01       1.318585492871e+03 
       1.445203465412e-01       1.236868388954e+03 
       1.493562944883e-01       1.159140471837e+03 
       1.543526033386e-01       1.089736253459e+03 
       1.595151423333e-01       1.031303416011e+03 
       1.648498401152e-01       9.840774254138e+02 
       1.703627021930e-01       9.457377271519e+02 
       1.760598328073e-01       9.119530024876e+02 
       1.819474620010e-01       8.776275723270e+02 
       1.880319787008e-01       8.386291339134e+02 
       1.943199706335e-01       7.934089765544e+02 
       2.008182719366e-01       7.436974237216e+02 
       2.075340193884e-01       6.937416391396e+02 
       2.144747182833e-01       6.483297819319e+02 
       2.216483191357e-01       6.105637508121e+02 
       2.290633066208e-01       5.804588093293e+02 
       2.367288024715e-01       5.550206696134e+02 
       2.446546844842e-01       5.298578559371e+02 
       2.528517243560e-01       5.016798400865e+02 
       2.613317478465e-01       4.702597807658e+02 
       2.701078217661e-01       4.383902420707e+02 
       2.791944736319e-01       4.097040476636e+02 
       2.886079516109e-01       3.859776032416e+02 
       2.983665347342e-01       3.659507432262e+02 
       3.084909065615e-01       3.465478376077e+02 
       3.190046098086e-01       3.255907902172e+02 
       3.299346054287e-01       3.036412192192e+02 
       3.413119679772e-01       2.830915571549e+02 
       3.531727609065e-01       2.654341454928e+02 
       3.655591524523e-01       2.497267385210e+02 
       3.785208577011e-01       2.339671558357e+02 
       3.921170296546e-01       2.176669025752e+02 
       4.064187788557e-01       2.021876930182e+02 
       4.215125896447e-01       1.884014548811e+02 
       4.375050426467e-01       1.753822751905e+02 
       4.545294858427e-01       1.622268198031e+02 
       4.727556914458e-01       1.495666826999e+02 
       4.924042296304e-01       1.378621903365e+02 
       5.137685585041e-01       1.263909518504e+02 
       5.372502548073e-01       1.151225605413e+02 
       5.634176896692e-01       1.043580343458e+02 
       5.931088591415e-01       9.365929808113e+01 
       6.276227554427e-01       8.312646224547e+01 
       6.691014215142e-01       7.250808828501e+01 
       7.213550100860e-01       6.167421033571e+01 
       7.917785128064e-01       5.035416063859e+01 
       8.958033064846e-01       3.835028663608e+01 
       1.063264050215e+00       2.610723402871e+01 
       1.321314494010e+00       1.587515905180e+01 
       1.662428577027e+00       9.281736550300e+00 
       2.092861113292e+00       5.364424599860e+00 
       2.634756010892e+00       3.072089892385e+00 
       3.316961295981e+00       1.744833242454e+00 
       4.175806865448e+00       9.836078032960e-01 
       5.257029377658e+00       5.507273544874e-01 
       6.618207874082e+00       3.064507951578e-01 
       8.331830073218e+00       1.695608450339e-01 
       1.048915260592e+01       9.333275720901e-02 
