# Matter power spectrum P(k) at redshift z=2.5
# for k=2.10821e-07 to 10.5808 h/Mpc,
# number of wavenumbers equal to 139
#    1:k (h/Mpc)              2:P (Mpc/h)^3        
       2.108213028521e-07       1.129433241924e-01 
       2.654082955081e-07       1.408836405119e-01 
       3.341292477161e-07       1.757359303005e-01 
       4.206438007735e-07       2.192101018914e-01 
       5.295591701074e-07       2.734390664662e-01 
       6.666754962968e-07       3.410833821070e-01 
       8.392947237086e-07       4.254617847274e-01 
       1.056609455662e-06       5.307140101093e-01 
       1.330192494074e-06       6.620038948137e-01 
       1.674613133368e-06       8.257727209219e-01 
       2.108213028521e-06       1.030055231622e+00 
       2.654082955081e-06       1.284873821787e+00 
       3.341292477161e-06       1.602730239459e+00 
       4.206438007735e-06       1.999218915634e+00 
       5.295591701074e-06       2.493791999424e+00 
       6.666754962968e-06       3.110713609981e+00 
       8.392947237086e-06       3.880250071258e+00 
       1.056609455662e-05       4.840154427647e+00 
       1.330192494074e-05       6.037517882781e+00 
       1.674613133368e-05       7.531078613296e+00 
       2.108213028521e-05       9.394100486528e+00 
       2.654082955081e-05       1.171796142961e+01 
       3.341292477161e-05       1.461662457541e+01 
       4.206438007735e-05       1.823220577248e+01 
       5.295591701074e-05       2.274189915423e+01 
       6.666754962968e-05       2.836657812577e+01 
       8.392947237086e-05       3.538144925097e+01 
       1.056609455662e-04       4.412919470162e+01 
       1.330192494074e-04       5.503607723626e+01 
       1.674613133368e-04       6.863146526815e+01 
       2.108213028521e-04       8.557109364162e+01 
       2.654082955081e-04       1.066639780173e+02 
       3.341292477161e-04       1.329020257709e+02 
       4.206438007735e-04       1.654897067899e+02 
       5.295591701074e-04       2.058683299592e+02 
       6.666754962968e-04       2.557255819941e+02 
       8.392947237086e-04       3.169774506487e+02 
       1.056609455662e-03       3.917099150092e+02 
       1.330192494074e-03       4.820726515098e+02 
       1.674613133368e-03       5.901072117554e+02 
       2.108213028521e-03       7.174331172346e+02 
       2.654082955081e-03       8.647001359945e+02 
       3.341292477161e-03       1.030912978992e+03 
       4.206438007735e-03       1.212685145244e+03 
       5.295591701074e-03       1.403374355460e+03 
       6.666754962968e-03       1.592326074232e+03 
       8.392947237086e-03       1.764419502274e+03 
       1.056609455662e-02       1.900001816874e+03 
       1.330192494074e-02       1.975614886916e+03 
       1.674613133368e-02       1.966336848560e+03 
       2.108213027533e-02       1.851744874707e+03 
       2.654081420985e-02       1.628335813675e+03 
       3.340912646498e-02       1.327539105540e+03 
       4.185527649817e-02       1.028317422567e+03 
       5.014461191212e-02       8.389018488502e+02 
       5.609764292745e-02       7.531668764630e+02 
       6.079541936846e-02       7.037214826247e+02 
       6.489311083470e-02       6.674113479005e+02 
       6.866448043467e-02       6.359934064110e+02 
       7.224634983122e-02       6.058510753554e+02 
       7.571747257916e-02       5.753179030239e+02 
       7.912802900759e-02       5.437689979364e+02 
       8.251254938447e-02       5.112259169901e+02 
       8.589629586310e-02       4.781330552092e+02 
       8.929871220064e-02       4.451954134359e+02 
       9.273542378975e-02       4.132411224764e+02 
       9.621946358689e-02       3.830997860900e+02 
       9.976205821993e-02       3.554988757041e+02 
       1.033731510875e-01       3.309831943431e+02 
       1.070617612640e-01       3.098603219626e+02 
       1.108362360468e-01       2.921719550999e+02 
       1.147044323609e-01       2.776886312058e+02 
       1.186738492122e-01       2.659251343270e+02 
       1.227517256074e-01       2.561778229923e+02 
       1.269451135785e-01       2.475890931743e+02 
       1.312609329270e-01       2.392452767624e+02 
       1.357060123611e-01       2.303070900844e+02 
       1.402871204225e-01       2.201570293140e+02 
       1.450109887548e-01       2.085294602531e+02 
       1.498843297054e-01       1.955792161090e+02 
       1.549138498764e-01       1.818526447782e+02 
       1.601062609948e-01       1.681549288714e+02 
       1.654682893099e-01       1.553460639443e+02 
       1.710066846221e-01       1.441252225324e+02 
       1.767282299825e-01       1.348637142723e+02 
       1.826397530636e-01       1.275240806930e+02 
       1.887481401720e-01       1.216777830243e+02 
       1.950603538620e-01       1.166208219781e+02 
       2.015834550940e-01       1.115771087538e+02 
       2.083246308772e-01       1.059495330660e+02 
       2.152912283349e-01       9.953099800680e+01 
       2.224907961405e-01       9.256792896096e+01 
       2.299311343003e-01       8.562440175101e+01 
       2.376203533108e-01       7.930618960272e+01 
       2.455669438086e-01       7.398542801787e+01 
       2.537798579705e-01       6.965571264364e+01 
       2.622686041312e-01       6.597246434677e+01 
       2.710433563830e-01       6.245359296955e+01 
       2.801150813316e-01       5.874524695164e+01 
       2.894956847423e-01       5.480371396685e+01 
       2.991981815554e-01       5.087181891657e+01 
       3.092368937395e-01       4.726843115106e+01 
       3.196276817594e-01       4.415349160231e+01 
       3.303882171680e-01       4.143884262784e+01 
       3.415383061294e-01       3.889336208316e+01 
       3.531002767620e-01       3.634426390852e+01 
       3.650994473480e-01       3.380089405936e+01 
       3.775646981365e-01       3.139695320858e+01 
       3.905291773289e-01       2.922706062162e+01 
       4.040311828665e-01       2.725521758893e+01 
       4.181152773543e-01       2.537868557395e+01 
       4.328337162223e-01       2.355177834407e+01 
       4.482483028056e-01       2.181402488994e+01 
       4.644328345272e-01       2.020474045914e+01 
       4.814763819701e-01       1.870120667918e+01 
       4.994877647093e-01       1.726319431258e+01 
       5.186017848996e-01       1.589096065081e+01 
       5.389881072990e-01       1.459864906637e+01 
       5.608642370900e-01       1.337293345005e+01 
       5.845150491131e-01       1.219862205303e+01 
       6.103231827725e-01       1.107690654635e+01 
       6.388182374613e-01       9.999993442535e+00 
       6.707601355592e-01       8.957665869219e+00 
       7.072882285461e-01       7.943146287560e+00 
       7.502055232941e-01       6.944456166735e+00 
       8.025619169311e-01       5.948432676148e+00 
       8.699499226401e-01       4.937379174174e+00 
       9.635628531194e-01       3.891380810550e+00 
       1.106854643148e+00       2.807733137771e+00 
       1.339208965642e+00       1.782452089171e+00 
       1.677174630056e+00       1.033898723272e+00 
       2.111145691611e+00       5.875478855020e-01 
       2.657772928234e+00       3.312819527753e-01 
       3.345937875858e+00       1.855213413657e-01 
       4.212286218201e+00       1.032516720874e-01 
       5.302954161844e+00       5.714004511134e-02 
       6.676023751925e+00       3.145799497920e-02 
       8.404615951040e+00       1.723657727680e-02 
       1.058078459713e+01       9.402885827289e-03 
