# Matter power spectrum P(k) at redshift z=2
# for k=2.08994e-07 to 10.4871 h/Mpc,
# number of wavenumbers equal to 139
#    1:k (h/Mpc)              2:P (Mpc/h)^3        
       2.089937256641e-07       2.310331386620e-01 
       2.631075121441e-07       2.881869282490e-01 
       3.312327330722e-07       3.594796230786e-01 
       4.169973048826e-07       4.484089550861e-01 
       5.249685037664e-07       5.593379374261e-01 
       6.608961897831e-07       6.977089204526e-01 
       8.320190078758e-07       8.703106019660e-01 
       1.047449872111e-06       1.085611090948e+00 
       1.318661261581e-06       1.354173365314e+00 
       1.660096171752e-06       1.689173506865e+00 
       2.089937256641e-06       2.107047137132e+00 
       2.631075121441e-06       2.628295767733e+00 
       3.312327330722e-06       3.278492623503e+00 
       4.169973048826e-06       4.089537279756e+00 
       5.249685037664e-06       5.101220651193e+00 
       6.608961897831e-06       6.363177094692e+00 
       8.320190078758e-06       7.937319344198e+00 
       1.047449872111e-05       9.900875638263e+00 
       1.318661261581e-05       1.235017786155e+01 
       1.660096171752e-05       1.540538614885e+01 
       2.089937256641e-05       1.921638099592e+01 
       2.631075121441e-05       2.397011043542e+01 
       3.312327330722e-05       2.989974975295e+01 
       4.169973048826e-05       3.729611722702e+01 
       5.249685037664e-05       4.652189432353e+01 
       6.608961897831e-05       5.802932496532e+01 
       8.320190078758e-05       7.238221705926e+01 
       1.047449872111e-04       9.028323650338e+01 
       1.318661261581e-04       1.126076584608e+02 
       1.660096171752e-04       1.404448917479e+02 
       2.089937256641e-04       1.751491564656e+02 
       2.631075121441e-04       2.184005481306e+02 
       3.312327330722e-04       2.722771443966e+02 
       4.169973048826e-04       3.393374688450e+02 
       5.249685037664e-04       4.227101349649e+02 
       6.608961897831e-04       5.261837274589e+02 
       8.320190078758e-04       6.542856802543e+02 
       1.047449872111e-03       8.123354595616e+02 
       1.318661261581e-03       1.006451020427e+03 
       1.660096171752e-03       1.243455309750e+03 
       2.089937256641e-03       1.530554310819e+03 
       2.631075121441e-03       1.874692646696e+03 
       3.312327330722e-03       2.281471105478e+03 
       4.169973048826e-03       2.753505765181e+03 
       5.249685037664e-03       3.287914123444e+03 
       6.608961897831e-03       3.872819809882e+03 
       8.320190078758e-03       4.482789337965e+03 
       1.047449872111e-02       5.073277892548e+03 
       1.318661261581e-02       5.575458292601e+03 
       1.660096171712e-02       5.895713220804e+03 
       2.089937126991e-02       5.930107573843e+03 
       2.631017058809e-02       5.609738099541e+03 
       3.307112060973e-02       4.983727787509e+03 
       4.054266510037e-02       4.329664816095e+03 
       4.624019706840e-02       3.951839372387e+03 
       5.052449030715e-02       3.735635460801e+03 
       5.415930986097e-02       3.585245805184e+03 
       5.745420363439e-02       3.464493739867e+03 
       6.055477805661e-02       3.356331837891e+03 
       6.354127294853e-02       3.251350781573e+03 
       6.646321656538e-02       3.144060311733e+03 
       6.935386540116e-02       3.031453584838e+03 
       7.223707219020e-02       2.912361413981e+03 
       7.513089364983e-02       2.787089245534e+03 
       7.804963583223e-02       2.657138083943e+03 
       8.100508556404e-02       2.524923058581e+03 
       8.400728864176e-02       2.393459733097e+03 
       8.706506147425e-02       2.266016883532e+03 
       9.018633865184e-02       2.145756113449e+03 
       9.337841552240e-02       2.035384438310e+03 
       9.664812128145e-02       1.936848920489e+03 
       1.000019446978e-01       1.851097246329e+03 
       1.034461267011e-01       1.777921565517e+03 
       1.069867292493e-01       1.715902797547e+03 
       1.106296868814e-01       1.662478871664e+03 
       1.143808454366e-01       1.614166156826e+03 
       1.182459911605e-01       1.566964098993e+03 
       1.222308725935e-01       1.516944249554e+03 
       1.263412170820e-01       1.460965811047e+03 
       1.305827433871e-01       1.397376816801e+03 
       1.349611716223e-01       1.326497437611e+03 
       1.394822315905e-01       1.250682676939e+03 
       1.441516704881e-01       1.173861073735e+03 
       1.489752608796e-01       1.100615680883e+03 
       1.539588098041e-01       1.035041033105e+03 
       1.591081698497e-01       9.796853159654e+02 
       1.644292530166e-01       9.348509056429e+02 
       1.699280481774e-01       8.984355756121e+02 
       1.756106429355e-01       8.664199514416e+02 
       1.814832506835e-01       8.340188763700e+02 
       1.875522436631e-01       7.972984382968e+02 
       1.938241928504e-01       7.547158440193e+02 
       2.003059155239e-01       7.078134047669e+02 
       2.070045314365e-01       6.605468803469e+02 
       2.139275286196e-01       6.174491868156e+02 
       2.210828399976e-01       5.815195750229e+02 
       2.284789322216e-01       5.528621450288e+02 
       2.361249084429e-01       5.287091549845e+02 
       2.440306271735e-01       5.049077590197e+02 
       2.522068399628e-01       4.782803001339e+02 
       2.606653513772e-01       4.485260708798e+02 
       2.694192057899e-01       4.182462720066e+02 
       2.784829068212e-01       3.909148712591e+02 
       2.878726770497e-01       3.682947772684e+02 
       2.976067679851e-01       3.492512216365e+02 
       3.077058334823e-01       3.308570384471e+02 
       3.181933841221e-01       3.109765978014e+02 
       3.290963460625e-01       2.900868685229e+02 
       3.404457562127e-01       2.704768254730e+02 
       3.522776374185e-01       2.536310318963e+02 
       3.646341143821e-01       2.386887608638e+02 
       3.775648560167e-01       2.237081725861e+02 
       3.911289672300e-01       2.081709763074e+02 
       4.053975100104e-01       1.933839448685e+02 
       4.204569224102e-01       1.802294644796e+02 
       4.364137459578e-01       1.678280859482e+02 
       4.534013055149e-01       1.552743239216e+02 
       4.715893818780e-01       1.431724461812e+02 
       4.911986140361e-01       1.319980597317e+02 
       5.125226420662e-01       1.210438778845e+02 
       5.359634391097e-01       1.102663078052e+02 
       5.620901887593e-01       9.997695730882e+01 
       5.917425370923e-01       8.974065051197e+01 
       6.262228977654e-01       7.966012113744e+01 
       6.676807156270e-01       6.948984994455e+01 
       7.199430896917e-01       5.910709948486e+01 
       7.904457361883e-01       4.824973628864e+01 
       8.947120049244e-01       3.672879308619e+01 
       1.062657237796e+00       2.498318392901e+01 
       1.321013792411e+00       1.519062582638e+01 
       1.662095627089e+00       8.886949688014e+00 
       2.092442739034e+00       5.139376631922e+00 
       2.634229311250e+00       2.944824179876e+00 
       3.316298220419e+00       1.673381461627e+00 
       4.174972102773e+00       9.437535417771e-01 
       5.255978473713e+00       5.286294804509e-01 
       6.616884864400e+00       2.942647933350e-01 
       8.330164502709e+00       1.628743350078e-01 
       1.048705577689e+01       8.968079097104e-02 
