# Matter power spectrum P(k) at redshift z=2.5
# for k=2.09634e-07 to 10.5173 h/Mpc,
# number of wavenumbers equal to 139
#    1:k (h/Mpc)              2:P (Mpc/h)^3        
       2.096340862940e-07       1.200944975653e-01 
       2.639136784138e-07       1.504156792588e-01 
       3.322476362752e-07       1.883922829228e-01 
       4.182749923154e-07       2.359571317035e-01 
       5.265770169438e-07       2.955310436616e-01 
       6.629211878974e-07       3.701460389404e-01 
       8.345683294608e-07       4.635996550606e-01 
       1.050659277837e-06       5.806482224923e-01 
       1.322701664006e-06       7.272489378279e-01 
       1.665182737040e-06       9.108630554267e-01 
       2.096340862940e-06       1.140835625301e+00 
       2.639136784138e-06       1.428871105590e+00 
       3.322476362752e-06       1.789629053417e+00 
       4.182749923154e-06       2.241470204829e+00 
       5.265770169438e-06       2.807390907117e+00 
       6.629211878974e-06       3.516193444882e+00 
       8.345683294608e-06       4.403951783516e+00 
       1.050659277837e-05       5.515847260259e+00 
       1.322701664006e-05       6.908467489087e+00 
       1.665182737040e-05       8.652685218376e+00 
       2.096340862940e-05       1.083726304879e+01 
       2.639136784138e-05       1.357336635846e+01 
       3.322476362752e-05       1.700021181549e+01 
       4.182749923154e-05       2.129213445995e+01 
       5.265770169438e-05       2.666742408107e+01 
       6.629211878974e-05       3.339936285410e+01 
       8.345683294608e-05       4.182999092203e+01 
       1.050659277837e-04       5.238723121614e+01 
       1.322701664006e-04       6.560610862776e+01 
       1.665182737040e-04       8.215487622493e+01 
       2.096340862940e-04       1.028668586429e+02 
       2.639136784138e-04       1.287786360642e+02 
       3.322476362752e-04       1.611746349002e+02 
       4.182749923154e-04       2.016369727413e+02 
       5.265770169438e-04       2.520971702240e+02 
       6.629211878974e-04       3.148829340000e+02 
       8.345683294608e-04       3.927493244908e+02 
       1.050659277837e-03       4.888812567182e+02 
       1.322701664006e-03       6.068533945957e+02 
       1.665182737040e-03       7.505190032030e+02 
       2.096340862940e-03       9.237438048621e+02 
       2.639136784138e-03       1.129870203249e+03 
       3.322476362752e-03       1.370929031845e+03 
       4.182749923154e-03       1.646552379389e+03 
       5.265770169438e-03       1.951356046970e+03 
       6.629211878974e-03       2.276807016526e+03 
       8.345683294608e-03       2.603891303498e+03 
       1.050659277837e-02       2.903920972043e+03 
       1.322701664006e-02       3.136262387323e+03 
       1.665182737033e-02       3.249841197855e+03 
       2.096340830234e-02       3.192924500469e+03 
       2.639115826798e-02       2.938681403205e+03 
       3.319955209647e-02       2.527099081524e+03 
       4.108918766850e-02       2.110425725184e+03 
       4.751123858947e-02       1.871613744774e+03 
       5.221523598004e-02       1.747239982279e+03 
       5.613127837420e-02       1.665661987856e+03 
       5.964533326698e-02       1.601912946339e+03 
       6.293238646099e-02       1.545206281889e+03 
       6.608626662180e-02       1.490013283778e+03 
       6.916375992877e-02       1.433361234362e+03 
       7.220242967886e-02       1.373824003825e+03 
       7.522889702195e-02       1.311063298894e+03 
       7.826311498716e-02       1.245561777151e+03 
       8.132075869931e-02       1.178415802860e+03 
       8.441464888562e-02       1.111136195646e+03 
       8.755564354293e-02       1.045443771472e+03 
       9.075321994828e-02       9.830640095513e+02 
       9.401586766668e-02       9.255332401964e+02 
       9.735136148607e-02       8.740315223940e+02 
       1.007669553866e-01       8.292540328801e+02 
       1.042695229819e-01       7.913269551258e+02 
       1.078656606943e-01       7.597715632659e+02 
       1.115617643669e-01       7.335207176345e+02 
       1.153640865583e-01       7.109979977466e+02 
       1.192787795534e-01       6.902740910333e+02 
       1.233119276959e-01       6.693116959153e+02 
       1.274695716981e-01       6.462888540221e+02 
       1.317577269584e-01       6.199533422510e+02 
       1.361823975009e-01       5.899209879706e+02 
       1.407495868683e-01       5.568123224675e+02 
       1.454653071238e-01       5.221493034071e+02 
       1.503355869925e-01       4.880054803169e+02 
       1.553664801036e-01       4.564937621226e+02 
       1.605640742437e-01       4.292348292053e+02 
       1.659345025032e-01       4.069490744383e+02 
       1.714839571815e-01       3.892678299501e+02 
       1.772187072987e-01       3.748110661926e+02 
       1.831451205607e-01       3.615498566540e+02 
       1.892696906126e-01       3.474229230231e+02 
       1.955990704271e-01       3.310599049015e+02 
       2.021401126827e-01       3.123199854091e+02 
       2.088999180235e-01       2.923370043907e+02 
       2.158858921538e-01       2.729790054184e+02 
       2.231058128165e-01       2.559685620790e+02 
       2.305679078600e-01       2.421038478194e+02 
       2.382809458150e-01       2.309414980875e+02 
       2.462543407143e-01       2.210762497241e+02 
       2.544982733117e-01       2.109159412159e+02 
       2.630238314262e-01       1.995867070668e+02 
       2.718431728988e-01       1.874065220407e+02 
       2.809697156547e-01       1.755520085147e+02 
       2.904183606927e-01       1.651446359333e+02 
       3.002057555875e-01       1.564513978840e+02 
       3.103506084391e-01       1.487816418486e+02 
       3.208740653577e-01       1.411310062400e+02 
       3.318001688597e-01       1.330461540106e+02 
       3.431564204343e-01       1.249319169516e+02 
       3.549744787337e-01       1.175050449210e+02 
       3.672910364192e-01       1.109978367087e+02 
       3.801489353115e-01       1.049791618187e+02 
       3.935986037582e-01       9.894628659316e+01 
       4.076999362363e-01       9.292456368855e+01 
       4.225247900230e-01       8.729269586449e+01 
       4.381603588862e-01       8.214647608166e+01 
       4.547138191954e-01       7.719888118245e+01 
       4.723188654010e-01       7.231017529932e+01 
       4.911451254088e-01       6.765028581396e+01 
       5.114120983057e-01       6.324698211314e+01 
       5.334104394485e-01       5.893862957515e+01 
       5.575356591618e-01       5.474301172293e+01 
       5.843437661947e-01       5.067599122832e+01 
       6.146478003275e-01       4.664558352403e+01 
       6.496953495067e-01       4.264436924780e+01 
       6.915180747081e-01       3.859390427882e+01 
       7.436753275334e-01       3.441928791110e+01 
       8.129618746329e-01       2.999583582222e+01 
       9.134290619348e-01       2.517298441502e+01 
       1.073366798417e+00       1.992116252671e+01 
       1.325678801489e+00       1.487671483440e+01 
       1.666911605673e+00       1.099638547080e+01 
       2.098484027124e+00       8.189696823717e+00 
       2.641834762506e+00       6.109914902847e+00 
       3.325872916235e+00       4.531820379436e+00 
       4.187025930646e+00       3.318397001415e+00 
       5.271153343931e+00       2.384523533988e+00 
       6.635988894139e+00       1.673724737654e+00 
       8.354215051215e+00       1.143948476132e+00 
       1.051733362357e+01       7.600210545312e-01 
