# Matter power spectrum P(k) at redshift z=1
# for k=2.1054e-07 to 10.5656 h/Mpc,
# number of wavenumbers equal to 139
#    1:k (h/Mpc)              2:P (Mpc/h)^3        
       2.105404027359e-07       4.355490544898e-01 
       2.650546632136e-07       5.432967097716e-01 
       3.336840510341e-07       6.776993582226e-01 
       4.200833313573e-07       8.453510054360e-01 
       5.288535809168e-07       1.054476904714e+00 
       6.657872121345e-07       1.315337100798e+00 
       8.381764402037e-07       1.640729802767e+00 
       1.055201620140e-06       2.046619282730e+00 
       1.328420134160e-06       2.552919104520e+00 
       1.672381864433e-06       3.184469108152e+00 
       2.105404027359e-06       3.972254077311e+00 
       2.650546632136e-06       4.954923875321e+00 
       3.336840510341e-06       6.180689614337e+00 
       4.200833313573e-06       7.709688865365e+00 
       5.288535809168e-06       9.616935891548e+00 
       6.657872121345e-06       1.199600155779e+01 
       8.381764402037e-06       1.496360325062e+01 
       1.055201620140e-05       1.866532961088e+01 
       1.328420134160e-05       2.328278016569e+01 
       1.672381864433e-05       2.904246861201e+01 
       2.105404027359e-05       3.622692351843e+01 
       2.650546632136e-05       4.518852510273e+01 
       3.336840510341e-05       5.636674508739e+01 
       4.200833313573e-05       7.030961213165e+01 
       5.288535809168e-05       8.770040988642e+01 
       6.657872121345e-05       1.093908269011e+02 
       8.381764402037e-05       1.364420062863e+02 
       1.055201620140e-04       1.701751597878e+02 
       1.328420134160e-04       2.122335480761e+02 
       1.672381864433e-04       2.646575508422e+02 
       2.105404027359e-04       3.299739958783e+02 
       2.650546632136e-04       4.112994317725e+02 
       3.336840510341e-04       5.124539223276e+02 
       4.200833313573e-04       6.380764189767e+02 
       5.288535809168e-04       7.937246179721e+02 
       6.657872121345e-04       9.859333197312e+02 
       8.381764402037e-04       1.222200216267e+03 
       1.055201620140e-03       1.510864290269e+03 
       1.328420134160e-03       1.860801234524e+03 
       1.672381864433e-03       2.280735668987e+03 
       2.105404027359e-03       2.777947706482e+03 
       2.650546632136e-03       3.356397418466e+03 
       3.336840510341e-03       4.014184994572e+03 
       4.200833313573e-03       4.740468884113e+03 
       5.288535809168e-03       5.511838600081e+03 
       6.657872121345e-03       6.288742526782e+03 
       8.381764402037e-03       7.012728696424e+03 
       1.055201620140e-02       7.604929881480e+03 
       1.328420134160e-02       7.967657165077e+03 
       1.672381864433e-02       7.993074948681e+03 
       2.105404024895e-02       7.588184226842e+03 
       2.650543585771e-02       6.728934804360e+03 
       3.336214445623e-02       5.539965394165e+03 
       4.171392213920e-02       4.356296271389e+03 
       4.953759723216e-02       3.630153975399e+03 
       5.513508944146e-02       3.293329186836e+03 
       5.961747177269e-02       3.092337699560e+03 
       6.355799384219e-02       2.942309567820e+03 
       6.720068610802e-02       2.811546846481e+03 
       7.066979275749e-02       2.685600827001e+03 
       7.403777780146e-02       2.557565629439e+03 
       7.735126654343e-02       2.424693220832e+03 
       8.064258817770e-02       2.286897828990e+03 
       8.393554204853e-02       2.145898927522e+03 
       8.724854222103e-02       2.004586498511e+03 
       9.059645331687e-02       1.866466667136e+03 
       9.399172210814e-02       1.735154555916e+03 
       9.744510645862e-02       1.613925048435e+03 
       1.009661622159e-01       1.505346114293e+03 
       1.045635783174e-01       1.411014028794e+03 
       1.082454131959e-01       1.331396131281e+03 
       1.120192649403e-01       1.265774792478e+03 
       1.158923957380e-01       1.212285139738e+03 
       1.198718239813e-01       1.168050313672e+03 
       1.239643930079e-01       1.129435993427e+03 
       1.281768226546e-01       1.092453025915e+03 
       1.325157480014e-01       1.053312750084e+03 
       1.369877485000e-01       1.009078882379e+03 
       1.415993698948e-01       9.582780292875e+02 
       1.463571408255e-01       9.012751315447e+02 
       1.512675856506e-01       8.402380718548e+02 
       1.563372348026e-01       7.786310697322e+02 
       1.615726338364e-01       7.203467700874e+02 
       1.669803522373e-01       6.687264649335e+02 
       1.725669929926e-01       6.257461110154e+02 
       1.783392038978e-01       5.915629864079e+02 
       1.843036915389e-01       5.645030106033e+02 
       1.904672388830e-01       5.415026227446e+02 
       1.968367273935e-01       5.189776991674e+02 
       2.034191645846e-01       4.939708890202e+02 
       2.102217179266e-01       4.652050627407e+02 
       2.172517560289e-01       4.335309448437e+02 
       2.245168980522e-01       4.014482365592e+02 
       2.320250723589e-01       3.718814983660e+02 
       2.397845855018e-01       3.468314552997e+02 
       2.478042027937e-01       3.265533183744e+02 
       2.560932419139e-01       3.095950483770e+02 
       2.646616813067e-01       2.936500149790e+02 
       2.735202855410e-01       2.768354909618e+02 
       2.826807503634e-01       2.587025714059e+02 
       2.921558709247e-01       2.403045793790e+02 
       3.019597376545e-01       2.232642086970e+02 
       3.121079655720e-01       2.085563953952e+02 
       3.226179645598e-01       1.959072379096e+02 
       3.335092604408e-01       1.841840206632e+02 
       3.448038797942e-01       1.724018324619e+02 
       3.565268156362e-01       1.604817577397e+02 
       3.687065968229e-01       1.490958836824e+02 
       3.813759919717e-01       1.388311383235e+02 
       3.945728898601e-01       1.295919552072e+02 
       4.083414141922e-01       1.208310112647e+02 
       4.227333537467e-01       1.122358001091e+02 
       4.378100231018e-01       1.039944049608e+02 
       4.536447206571e-01       9.636985480831e+01 
       4.703260300516e-01       8.927982064177e+01 
       4.879623363044e-01       8.248405305976e+01 
       5.066881308450e-01       7.596339836905e+01 
       5.266730179634e-01       6.982105806968e+01 
       5.481349185221e-01       6.400023951543e+01 
       5.713600103917e-01       5.840518415736e+01 
       5.967338923044e-01       5.305086200736e+01 
       6.247922686454e-01       4.790556868707e+01 
       6.563073265054e-01       4.291176172429e+01 
       6.924432738407e-01       3.804177996845e+01 
       7.350551694656e-01       3.323366607725e+01 
       7.873076074525e-01       2.842274519646e+01 
       8.550612016012e-01       2.351977154913e+01 
       9.501529508124e-01       1.842676717068e+01 
       1.097286744045e+00       1.315578953202e+01 
       1.335229813179e+00       8.257738464463e+00 
       1.674668007136e+00       4.783672268539e+00 
       2.108106714966e+00       2.723696569567e+00 
       2.653948105519e+00       1.538603853638e+00 
       3.341122710723e+00       8.631007761836e-01 
       4.206224284451e+00       4.811007262258e-01 
       5.295322639402e+00       2.666192647068e-01 
       6.666416234392e+00       1.469742055759e-01 
       8.392520803073e+00       8.062541232367e-02 
       1.056555770800e+01       4.402998097832e-02 
