# Matter power spectrum P(k) at redshift z=0
# for k=2.09116e-07 to 10.4928 h/Mpc,
# number of wavenumbers equal to 139
#    1:k (h/Mpc)              2:P (Mpc/h)^3        
       2.091163404297e-07       1.573153897061e+00 
       2.632618749884e-07       1.951377127631e+00 
       3.314270643794e-07       2.420534125953e+00 
       4.172419535036e-07       3.002487509729e+00 
       5.252764981323e-07       3.724356183757e+00 
       6.612839317170e-07       4.619779074383e+00 
       8.325071460497e-07       5.730482694653e+00 
       1.048064401662e-06       7.108225587451e+00 
       1.319434908449e-06       8.817210255664e+00 
       1.661070135455e-06       1.093707497170e+01 
       2.091163404297e-06       1.356660487642e+01 
       2.632618749884e-06       1.682833529190e+01 
       3.314270643794e-06       2.087426173501e+01 
       4.172419535036e-06       2.589292266729e+01 
       5.252764981323e-06       3.211818493393e+01 
       6.612839317170e-06       3.984014109883e+01 
       8.325071460497e-06       4.941862610143e+01 
       1.048064401662e-05       6.129998234820e+01 
       1.319434908449e-05       7.603785301132e+01 
       1.661070135455e-05       9.431896955074e+01 
       2.091163404297e-05       1.169951294241e+02 
       2.632618749884e-05       1.451228428232e+02 
       3.314270643794e-05       1.800124737936e+02 
       4.172419535036e-05       2.232891221595e+02 
       5.252764981323e-05       2.769679980563e+02 
       6.612839317170e-05       3.435476344840e+02 
       8.325071460497e-05       4.261249560033e+02 
       1.048064401662e-04       5.285369329445e+02 
       1.319434908449e-04       6.555342018779e+02 
       1.661070135455e-04       8.129924149897e+02 
       2.091163404297e-04       1.008166803008e+03 
       2.632618749884e-04       1.249993854722e+03 
       3.314270643794e-04       1.549440260766e+03 
       4.172419535036e-04       1.919892589346e+03 
       5.252764981323e-04       2.377571705775e+03 
       6.612839317170e-04       2.941944468036e+03 
       8.325071460497e-04       3.636085259739e+03 
       1.048064401662e-03       4.486878939685e+03 
       1.319434908449e-03       5.524824494796e+03 
       1.661070135455e-03       6.783114869401e+03 
       2.091163404297e-03       8.295613936217e+03 
       2.632618749884e-03       1.009326171982e+04 
       3.314270643794e-03       1.219810024520e+04 
       4.172419535036e-03       1.461456674694e+04 
       5.252764981323e-03       1.731665164868e+04 
       6.612839317170e-03       2.023071380178e+04 
       8.325071460497e-03       2.321398068354e+04 
       1.048064401662e-02       2.602959041242e+04 
       1.319434908449e-02       2.832564859587e+04 
       1.661070135425e-02       2.963979935231e+04 
       2.091163300918e-02       2.947932610169e+04 
       2.632569622627e-02       2.755039289424e+04 
       3.309638783018e-02       2.415746723861e+04 
       4.064690068535e-02       2.071021391438e+04 
       4.646034851661e-02       1.874018692030e+04 
       5.081143105582e-02       1.763191132224e+04 
       5.449176828728e-02       1.686841444256e+04 
       5.782249550000e-02       1.625888530889e+04 
       6.095374577582e-02       1.571525071491e+04 
       6.396788342794e-02       1.518977995064e+04 
       6.691558354513e-02       1.465513879679e+04 
       6.983078858171e-02       1.409672019249e+04 
       7.273779497156e-02       1.350916926233e+04 
       7.565496492125e-02       1.289441565901e+04 
       7.859682600310e-02       1.226016603681e+04 
       8.157533297621e-02       1.161842093188e+04 
       8.460066401465e-02       1.098386582711e+04 
       8.768174357590e-02       1.037214276853e+04 
       9.082659724262e-02       9.798098505234e+03 
       9.404259917110e-02       9.274143236425e+03 
       9.733664854016e-02       8.808850205188e+03 
       1.007152976488e-01       8.405898735319e+03 
       1.041848462131e-01       8.063432548763e+03 
       1.077514114858e-01       7.773902549922e+03 
       1.114209807379e-01       7.524494005301e+03 
       1.151994506729e-01       7.298277874832e+03 
       1.190926570555e-01       7.076214000511e+03 
       1.231063969916e-01       6.839993523835e+03 
       1.272464457322e-01       6.575409674983e+03 
       1.315185694968e-01       6.275561477798e+03 
       1.359285355652e-01       5.942916611888e+03 
       1.404821207210e-01       5.589319894734e+03 
       1.451851190262e-01       5.233549723196e+03 
       1.500433498387e-01       4.896848492999e+03 
       1.550626669414e-01       4.597597059247e+03 
       1.602489696295e-01       4.346582025198e+03 
       1.656082165804e-01       4.144059115232e+03 
       1.711464433243e-01       3.979365900287e+03 
       1.768697841228e-01       3.833491155660e+03 
       1.827844990621e-01       3.684591494541e+03 
       1.888970071717e-01       3.515428473919e+03 
       1.952139263956e-01       3.320123720648e+03 
       2.017421212805e-01       3.106760617750e+03 
       2.084887593074e-01       2.893738270979e+03 
       2.154613768965e-01       2.701169946390e+03 
       2.226679562707e-01       2.541548186608e+03 
       2.301170145869e-01       2.414176233193e+03 
       2.378177070573e-01       2.305921860930e+03 
       2.457799462116e-01       2.198318862899e+03 
       2.540145400266e-01       2.078071988781e+03 
       2.625333524118e-01       1.944906706529e+03 
       2.713494905543e-01       1.810829660373e+03 
       2.804775249630e-01       1.690738954842e+03 
       2.899337498241e-01       1.591404905716e+03 
       2.997364936512e-01       1.507101868842e+03 
       3.099064933950e-01       1.425111904726e+03 
       3.204673495114e-01       1.336912829663e+03 
       3.314460854532e-01       1.245245847428e+03 
       3.428738433697e-01       1.159867307718e+03 
       3.547867595924e-01       1.086430950448e+03 
       3.672270804482e-01       1.020785257224e+03 
       3.802446037979e-01       9.549612890659e+02 
       3.938985687872e-01       8.873328290600e+02 
       4.082601728243e-01       8.233960298416e+02 
       4.234159828986e-01       7.663390585087e+02 
       4.394726491757e-01       7.123552262207e+02 
       4.565635602229e-01       6.580667508814e+02 
       4.748584715630e-01       6.060208346016e+02 
       4.945778280883e-01       5.578304578198e+02 
       5.160147589350e-01       5.106850527977e+02 
       5.395701264168e-01       4.645520237253e+02 
       5.658108403346e-01       4.204818290307e+02 
       5.955719338794e-01       3.768151283844e+02 
       6.301462652277e-01       3.339032656613e+02 
       6.716626279265e-01       2.907693144356e+02 
       7.239008865658e-01       2.468823702322e+02 
       7.941833021067e-01       2.011870839799e+02 
       8.977764236325e-01       1.529186565443e+02 
       1.064362907774e+00       1.038305862748e+02 
       1.321841311540e+00       6.282079405823e+01 
       1.663004670266e+00       3.648801135124e+01 
       2.093584830207e+00       2.094931836775e+01 
       2.635667111757e+00       1.191925556494e+01 
       3.318108304011e+00       6.726286390739e+00 
       4.177250863004e+00       3.767758321527e+00 
       5.258847262875e+00       2.096362332943e+00 
       6.620496455978e+00       1.159268964921e+00 
       8.334711227124e+00       6.374762912669e-01 
       1.049277976379e+01       3.487426299577e-01 
