# Matter power spectrum P(k) at redshift z=1
# for k=2.08894e-07 to 10.4824 h/Mpc,
# number of wavenumbers equal to 139
#    1:k (h/Mpc)              2:P (Mpc/h)^3        
       2.088938409866e-07       4.359558335617e-01 
       2.629817647853e-07       5.435412304278e-01 
       3.310744265267e-07       6.776766047612e-01 
       4.167980087496e-07       8.449139730294e-01 
       5.247176048001e-07       1.053422261394e+00 
       6.605803266986e-07       1.313386327158e+00 
       8.316213598121e-07       1.637504451175e+00 
       1.046949262858e-06       2.041608600869e+00 
       1.318031031872e-06       2.545437761501e+00 
       1.659302759556e-06       3.173602109659e+00 
       2.088938409866e-06       3.956785121727e+00 
       2.629817647853e-06       4.933242336234e+00 
       3.310744265267e-06       6.150669968368e+00 
       4.167980087496e-06       7.668534643536e+00 
       5.247176048001e-06       9.560978019952e+00 
       6.605803266986e-06       1.192043813526e+01 
       8.316213598121e-06       1.486216426764e+01 
       1.046949262858e-05       1.852984565851e+01 
       1.318031031872e-05       2.310262865666e+01 
       1.659302759556e-05       2.880386431634e+01 
       2.088938409866e-05       3.591201225329e+01 
       2.629817647853e-05       4.477423049162e+01 
       3.310744265267e-05       5.582330939012e+01 
       4.167980087496e-05       6.959876551680e+01 
       5.247176048001e-05       8.677310360031e+01 
       6.605803266986e-05       1.081844854601e+02 
       8.316213598121e-05       1.348773155167e+02 
       1.046949262858e-04       1.681525562118e+02 
       1.318031031872e-04       2.096299010187e+02 
       1.659302759556e-04       2.613242021354e+02 
       2.088938409866e-04       3.257386598098e+02 
       2.629817647853e-04       4.059770160966e+02 
       3.310744265267e-04       5.058760066222e+02 
       4.167980087496e-04       6.301571380524e+02 
       5.247176048001e-04       7.845931033512e+02 
       6.605803266986e-04       9.761790688481e+02 
       8.316213598121e-04       1.213293634390e+03 
       1.046949262858e-03       1.505826008880e+03 
       1.318031031872e-03       1.865216444131e+03 
       1.659302759556e-03       2.304273658610e+03 
       2.088938409866e-03       2.836605379049e+03 
       2.629817647853e-03       3.475526846704e+03 
       3.310744265267e-03       4.232122635364e+03 
       4.167980087496e-03       5.101218291615e+03 
       5.247176048001e-03       6.095419404183e+03 
       6.605803266986e-03       7.186479046210e+03 
       8.316213598121e-03       8.328307899022e+03 
       1.046949262858e-02       9.439090522422e+03 
       1.318031031872e-02       1.039126105471e+04 
       1.659302759506e-02       1.101011064223e+04 
       2.088938256332e-02       1.110038978077e+04 
       2.629751876680e-02       1.053067494210e+04 
       3.305047382303e-02       9.388847943146e+03 
       4.046018515406e-02       8.192689245878e+03 
       4.607206425336e-02       7.499731918686e+03 
       5.030695606121e-02       7.098423720901e+03 
       5.390790121205e-02       6.817542453438e+03 
       5.717602855314e-02       6.591810814733e+03 
       6.025363649990e-02       6.390203467242e+03 
       6.321940447884e-02       6.195472020711e+03 
       6.612201527886e-02       5.997457620930e+03 
       6.899421825368e-02       5.790497588814e+03 
       7.185953735774e-02       5.572259572876e+03 
       7.473580251081e-02       5.343094113863e+03 
       7.763715503463e-02       5.105542845477e+03 
       8.057525669053e-02       4.863843752131e+03 
       8.356005455615e-02       4.623374674125e+03 
       8.660028436505e-02       4.390031515989e+03 
       8.970381269077e-02       4.169574304232e+03 
       9.287787591135e-02       3.966991093169e+03 
       9.612925080778e-02       3.785932812052e+03 
       9.946437852863e-02       3.628264664428e+03 
       1.028894559081e-01       3.493767546356e+03 
       1.064105034027e-01       3.380020236667e+03 
       1.100334159537e-01       3.282500936892e+03 
       1.137640011891e-01       3.194962049212e+03 
       1.176080081421e-01       3.110132584189e+03 
       1.215711488473e-01       3.020762365505e+03 
       1.256591146348e-01       2.920918704721e+03 
       1.298775885800e-01       2.807296317942e+03 
       1.342322553259e-01       2.680168375258e+03 
       1.387288093412e-01       2.543587694850e+03 
       1.433729625728e-01       2.404613438364e+03 
       1.481704523881e-01       2.271658354581e+03 
       1.531270506643e-01       2.152380915552e+03 
       1.582485748535e-01       2.051704280128e+03 
       1.635409018401e-01       1.970476060040e+03 
       1.690099853919e-01       1.905100460627e+03 
       1.746618780040e-01       1.848332849528e+03 
       1.805027579278e-01       1.791298003834e+03 
       1.865389621869e-01       1.726446759526e+03 
       1.927770263948e-01       1.650513138726e+03 
       1.992237322311e-01       1.566008235011e+03 
       2.058861634919e-01       1.480144198182e+03 
       2.127717717388e-01       1.401458236673e+03 
       2.198884527248e-01       1.335811808775e+03 
       2.272446350013e-01       1.283731599122e+03 
       2.348493824250e-01       1.240290247170e+03 
       2.427125127149e-01       1.197714610217e+03 
       2.508447347825e-01       1.149773894731e+03 
       2.592578083276e-01       1.095552065406e+03 
       2.679647302040e-01       1.039769499381e+03 
       2.769799534001e-01       9.890625430403e+02 
       2.863196462589e-01       9.470174009676e+02 
       2.960020019310e-01       9.117388780765e+02 
       3.060476112571e-01       8.777313254446e+02 
       3.164799166178e-01       8.407462032020e+02 
       3.273257702880e-01       8.014604758368e+02 
       3.386161291980e-01       7.641946465393e+02 
       3.503869298683e-01       7.319375516569e+02 
       3.626802043832e-01       7.032216064489e+02 
       3.755455233234e-01       6.743296805498e+02 
       3.890418890387e-01       6.441106165073e+02 
       4.032402597763e-01       6.149855736695e+02 
       4.182269743774e-01       5.887317708511e+02 
       4.341084900325e-01       5.637545936541e+02 
       4.510180806381e-01       5.382537132296e+02 
       4.691255425697e-01       5.132901975284e+02 
       4.886516572085e-01       4.897987108305e+02 
       5.098904458237e-01       4.664380434603e+02 
       5.332447161514e-01       4.430221597174e+02 
       5.592853676729e-01       4.200804837270e+02 
       5.888555395109e-01       3.967032962093e+02 
       6.232649035524e-01       3.728895707016e+02 
       6.646786384263e-01       3.479213253761e+02 
       7.169599312457e-01       3.210803368891e+02 
       7.876313052907e-01       2.909961771729e+02 
       8.924113662114e-01       2.556476646627e+02 
       1.061376631862e+00       2.134062340195e+02 
       1.320351555563e+00       1.685881017166e+02 
       1.661352173519e+00       1.289559618255e+02 
       2.091508293174e+00       9.564295794466e+01 
       2.633052917953e+00       6.834048485443e+01 
       3.314817229004e+00       4.694497067171e+01 
       4.173107645046e+00       3.109490426039e+01 
       5.253631260501e+00       1.997551283351e+01 
       6.613929898041e+00       1.252297584764e+01 
       8.326444420469e+00       7.704399489294e+00 
       1.048237247082e+01       4.673083862214e+00 
