# Matter power spectrum P(k) at redshift z=2
# for k=2.08965e-07 to 10.4857 h/Mpc,
# number of wavenumbers equal to 139
#    1:k (h/Mpc)              2:P (Mpc/h)^3        
       2.089645153098e-07       2.070194701952e-01 
       2.630707384868e-07       2.582326741157e-01 
       3.311864377805e-07       3.221151803316e-01 
       4.169390225634e-07       4.018011652074e-01 
       5.248951306737e-07       5.012001487771e-01 
       6.608038185322e-07       6.251888015191e-01 
       8.319027193608e-07       7.798502015217e-01 
       1.047303473544e-06       9.727722794486e-01 
       1.318476956705e-06       1.213420093611e+00 
       1.659864145661e-06       1.513600199259e+00 
       2.089645153098e-06       1.888039893386e+00 
       2.630707384868e-06       2.355109753316e+00 
       3.311864377805e-06       2.937724914899e+00 
       4.169390225634e-06       3.664469301263e+00 
       5.248951306737e-06       4.570997948828e+00 
       6.608038185322e-06       5.701786207354e+00 
       8.319027193608e-06       7.112311591838e+00 
       1.047303473544e-05       8.871775234272e+00 
       1.318476956705e-05       1.106649630004e+01 
       1.659864145661e-05       1.380414553402e+01 
       2.089645153098e-05       1.721902499545e+01 
       2.630707384868e-05       2.147865166161e+01 
       3.311864377805e-05       2.679196526195e+01 
       4.169390225634e-05       3.341955783817e+01 
       5.248951306737e-05       4.168641660544e+01 
       6.608038185322e-05       5.199778504176e+01 
       8.319027193608e-05       6.485888035793e+01 
       1.047303473544e-04       8.089935622679e+01 
       1.318476956705e-04       1.009035569901e+02 
       1.659864145661e-04       1.258477476453e+02 
       2.089645153098e-04       1.569455663847e+02 
       2.630707384868e-04       1.957028235847e+02 
       3.311864377805e-04       2.439822706049e+02 
       4.169390225634e-04       3.040777868124e+02 
       5.248951306737e-04       3.787952435482e+02 
       6.608038185322e-04       4.715339823596e+02 
       8.319027193608e-04       5.863590343845e+02 
       1.047303473544e-03       7.280511007050e+02 
       1.318476956705e-03       9.021155887421e+02 
       1.659864145661e-03       1.114702668373e+03 
       2.089645153098e-03       1.372327544547e+03 
       2.630707384868e-03       1.681299972964e+03 
       3.311864377805e-03       2.046764557317e+03 
       4.169390225634e-03       2.471237213234e+03 
       5.248951306737e-03       2.952352764796e+03 
       6.608038185322e-03       3.479717172785e+03 
       8.319027193608e-03       4.030774117633e+03 
       1.047303473544e-02       4.565742481931e+03 
       1.318476956705e-02       5.022846607584e+03 
       1.659864145617e-02       5.317689905690e+03 
       2.089645016674e-02       5.356095231594e+03 
       2.630647099963e-02       5.074853973716e+03 
       3.306508366335e-02       4.516818476142e+03 
       4.051826697427e-02       3.931757694971e+03 
       4.618991945230e-02       3.593128740079e+03 
       5.045929312911e-02       3.398544039298e+03 
       5.408390143615e-02       3.262856601352e+03 
       5.737073577397e-02       3.153781628293e+03 
       6.046439982418e-02       3.056048815732e+03 
       6.344466112597e-02       2.961202242612e+03 
       6.636079232595e-02       2.864289948494e+03 
       6.924589672704e-02       2.762584611836e+03 
       7.212372781830e-02       2.655008616911e+03 
       7.501227389600e-02       2.541811716328e+03 
       7.792579134116e-02       2.424323642817e+03 
       8.087602928671e-02       2.304704031040e+03 
       8.387300378850e-02       2.185662642038e+03 
       8.692550695996e-02       2.070148055748e+03 
       9.004145291536e-02       1.961023135595e+03 
       9.322811925576e-02       1.860750534488e+03 
       9.649231940720e-02       1.771114712741e+03 
       9.984052781510e-02       1.693002395789e+03 
       1.032789721489e-01       1.626257657329e+03 
       1.068137018887e-01       1.569627783068e+03 
       1.104506396699e-01       1.520820755144e+03 
       1.141956198465e-01       1.476702021195e+03 
       1.180544174801e-01       1.433656787911e+03 
       1.220327701406e-01       1.388120347910e+03 
       1.261363943513e-01       1.337225225017e+03 
       1.303709981505e-01       1.279439161705e+03 
       1.347422909938e-01       1.215010666391e+03 
       1.392559920673e-01       1.146037265653e+03 
       1.439178379763e-01       1.076059445482e+03 
       1.487335907103e-01       1.009235576055e+03 
       1.537090467440e-01       9.493060826307e+02 
       1.588500481093e-01       8.986266321743e+02 
       1.641624962563e-01       8.575208000254e+02 
       1.696523695112e-01       8.241212674513e+02 
       1.753257449304e-01       7.947990744472e+02 
       1.811888253502e-01       7.651997025218e+02 
       1.872479724335e-01       7.317114463457e+02 
       1.935097465352e-01       6.928774784680e+02 
       1.999809542424e-01       6.500517025349e+02 
       2.066687045109e-01       6.068139661717e+02 
       2.135804744217e-01       5.673108283453e+02 
       2.207241857404e-01       5.343234378042e+02 
       2.281082936822e-01       5.080007532025e+02 
       2.357418896059e-01       4.858511397835e+02 
       2.436348197838e-01       4.640785633747e+02 
       2.517978229742e-01       4.397386997424e+02 
       2.602426902869e-01       4.125045561277e+02 
       2.689824518453e-01       3.847295743179e+02 
       2.780315960898e-01       3.596122568830e+02 
       2.874063293421e-01       3.388143700270e+02 
       2.971248856224e-01       3.213335424506e+02 
       3.072078999052e-01       3.044832427981e+02 
       3.176788623419e-01       2.862652559759e+02 
       3.285646769641e-01       2.670820587895e+02 
       3.398963567360e-01       2.490414978985e+02 
       3.517098986672e-01       2.335453611217e+02 
       3.640473997512e-01       2.198260768792e+02 
       3.769584994985e-01       2.060794396764e+02 
       3.905022721719e-01       1.917966818718e+02 
       4.047497487932e-01       1.781832767788e+02 
       4.197873378506e-01       1.660815363666e+02 
       4.357215558264e-01       1.546859026041e+02 
       4.526857126210e-01       1.431369324618e+02 
       4.708495941269e-01       1.319906400250e+02 
       4.904338825891e-01       1.217070002755e+02 
       5.117323331143e-01       1.116248702326e+02 
       5.351471700118e-01       1.016946566175e+02 
       5.612480924252e-01       9.221818139653e+01 
       5.908757946616e-01       8.278463262409e+01 
       6.253348662012e-01       7.349281888208e+01 
       6.667794637737e-01       6.411354202596e+01 
       7.190474841008e-01       5.453468524406e+01 
       7.896006044183e-01       4.451271448640e+01 
       8.940206827571e-01       3.387355250230e+01 
       1.062272814958e+00       2.302967959053e+01 
       1.320819186643e+00       1.400262706213e+01 
       1.661878589734e+00       8.195284239713e+00 
       2.092169978586e+00       4.741286577373e+00 
       2.633885927577e+00       2.717709354790e+00 
       3.315865925988e+00       1.544831151656e+00 
       4.174427876328e+00       8.715131039882e-01 
       5.255293333212e+00       4.882971131874e-01 
       6.616022323613e+00       2.718805402915e-01 
       8.329078628194e+00       1.505186587166e-01 
       1.048568874186e+01       8.289470346066e-02 
