# Matter power spectrum P(k) at redshift z=1.5
# for k=2.04558e-07 to 10.2642 h/Mpc,
# number of wavenumbers equal to 139
#    1:k (h/Mpc)              2:P (Mpc/h)^3        
       2.045580663358e-07       3.134066244550e-01 
       2.575233478976e-07       3.909382562975e-01 
       3.242026867986e-07       4.876499354899e-01 
       4.081470009827e-07       6.082864894523e-01 
       5.138266312847e-07       7.587665373624e-01 
       6.468694033809e-07       9.464728668688e-01 
       8.143603300283e-07       1.180614644918e+00 
       1.025218913830e-06       1.472679233029e+00 
       1.290674143272e-06       1.836995773862e+00 
       1.624862477311e-06       2.291438198480e+00 
       2.045580663358e-06       2.858302142930e+00 
       2.575233478976e-06       3.565398794161e+00 
       3.242026867986e-06       4.447419326415e+00 
       4.081470009827e-06       5.547636855008e+00 
       5.138266312847e-06       6.920029384574e+00 
       6.468694033809e-06       8.631927860937e+00 
       8.143603300283e-06       1.076731915062e+01 
       1.025218913830e-05       1.343096580526e+01 
       1.290674143272e-05       1.675354437981e+01 
       1.624862477311e-05       2.089805365475e+01 
       2.045580663358e-05       2.606780574953e+01 
       2.575233478976e-05       3.251638932131e+01 
       3.242026867986e-05       4.056008809821e+01 
       4.081470009827e-05       5.059335294201e+01 
       5.138266312847e-05       6.310806472210e+01 
       6.468694033809e-05       7.871749009936e+01 
       8.143603300283e-05       9.818602082999e+01 
       1.025218913830e-04       1.224659895967e+02 
       1.290674143272e-04       1.527430436320e+02 
       1.624862477311e-04       1.904916711875e+02 
       2.045580663358e-04       2.375423914238e+02 
       2.575233478976e-04       2.961616087142e+02 
       3.242026867986e-04       3.691438188169e+02 
       4.081470009827e-04       4.599132148381e+02 
       5.138266312847e-04       5.726273230777e+02 
       6.468694033809e-04       7.122693963331e+02 
       8.143603300283e-04       8.847108055688e+02 
       1.025218913830e-03       1.096720859470e+03 
       1.290674143272e-03       1.355886589394e+03 
       1.624862477311e-03       1.670341341051e+03 
       2.045580663358e-03       2.048119636273e+03 
       2.575233478976e-03       2.496048438809e+03 
       3.242026867986e-03       3.018118304326e+03 
       4.081470009827e-03       3.613150546783e+03 
       5.138266312847e-03       4.271674032197e+03 
       6.468694033809e-03       4.972110367187e+03 
       8.143603300283e-03       5.676581880140e+03 
       1.025218913830e-02       6.326889011178e+03 
       1.290674143272e-02       6.842481874005e+03 
       1.624862477278e-02       7.124807327805e+03 
       2.045580551728e-02       7.077164227184e+03 
       2.575181782167e-02       6.651738935241e+03 
       3.237254411481e-02       5.922975662713e+03 
       3.972719199443e-02       5.179659392389e+03 
       4.536579260882e-02       4.734362904445e+03 
       4.959454908946e-02       4.462926337592e+03 
       5.317614554820e-02       4.260650095198e+03 
       5.641981590397e-02       4.089206814774e+03 
       5.947051550301e-02       3.931498311591e+03 
       6.240792350731e-02       3.778855148759e+03 
       6.528113217187e-02       3.626848325253e+03 
       6.812305918397e-02       3.473599765715e+03 
       7.095728779563e-02       3.318951565120e+03 
       7.380165404280e-02       3.163953991767e+03 
       7.667027786796e-02       3.010471959305e+03 
       7.957478474857e-02       2.860832115728e+03 
       8.252507705409e-02       2.717487342140e+03 
       8.552984084729e-02       2.582700108292e+03 
       8.859688997122e-02       2.458259410247e+03 
       9.173340608336e-02       2.345248166735e+03 
       9.494610986750e-02       2.243879267522e+03 
       9.824138535785e-02       2.153416979057e+03 
       1.016253714742e-01       2.072200021469e+03 
       1.051040300954e-01       1.997782392942e+03 
       1.086831970142e-01       1.927204295927e+03 
       1.123686202049e-01       1.857388355456e+03 
       1.161659885908e-01       1.785627122449e+03 
       1.200809536765e-01       1.710085149731e+03 
       1.241191458654e-01       1.630199911509e+03 
       1.282861869145e-01       1.546853722839e+03 
       1.325876997432e-01       1.462223988382e+03 
       1.370293166492e-01       1.379301690104e+03 
       1.416166868856e-01       1.301173454115e+03 
       1.463554844870e-01       1.230244492307e+03 
       1.512514171926e-01       1.167608756264e+03 
       1.563102372886e-01       1.112741499032e+03 
       1.615377551767e-01       1.063623964110e+03 
       1.669398564635e-01       1.017320187514e+03 
       1.725225233595e-01       9.709008608084e+02 
       1.782918611734e-01       9.224475599961e+02 
       1.842541306924e-01       8.717421506973e+02 
       1.904157872555e-01       8.202875059247e+02 
       1.967835273630e-01       7.705797256960e+02 
       2.033643437267e-01       7.249385641939e+02 
       2.101655897668e-01       6.844502764530e+02 
       2.171950547133e-01       6.485315847861e+02 
       2.244610506907e-01       6.153309218103e+02 
       2.319725134681e-01       5.827818676970e+02 
       2.397391189821e-01       5.497480295152e+02 
       2.477714182958e-01       5.165621510932e+02 
       2.560809944120e-01       4.845913173331e+02 
       2.646806453444e-01       4.551428254074e+02 
       2.735845991628e-01       4.285225606369e+02 
       2.828087684649e-01       4.039292799144e+02 
       2.923710540433e-01       3.802126255582e+02 
       3.022917106377e-01       3.568261856378e+02 
       3.125937919039e-01       3.341318021425e+02 
       3.233036975760e-01       3.128226829151e+02 
       3.344518539503e-01       2.931192605416e+02 
       3.460735703759e-01       2.745938486041e+02 
       3.582101310666e-01       2.567348638023e+02 
       3.709102059193e-01       2.394977411067e+02 
       3.842317004023e-01       2.231632592758e+02 
       3.982442200326e-01       2.078016478493e+02 
       4.130324114291e-01       1.931658056822e+02 
       4.287005801850e-01       1.790892739757e+02 
       4.453792131090e-01       1.656406129312e+02 
       4.632344179441e-01       1.528240881258e+02 
       4.824819709460e-01       1.404978810472e+02 
       5.034089004351e-01       1.286059722922e+02 
       5.264079002068e-01       1.171233857534e+02 
       5.520346253462e-01       1.059460301317e+02 
       5.811080656184e-01       9.499747790826e+01 
       6.148972589655e-01       8.416803888967e+01 
       6.554938515982e-01       7.331672359819e+01 
       7.066162030375e-01       6.225202815576e+01 
       7.754766874649e-01       5.072655646791e+01 
       8.771215160149e-01       3.854267799471e+01 
       1.040694833272e+00       2.616100867046e+01 
       1.293004042671e+00       1.584450667769e+01 
       1.626782535011e+00       9.224501887325e+00 
       2.047985201688e+00       5.310429886755e+00 
       2.578260584566e+00       3.030286576528e+00 
       3.245837768129e+00       1.715468097452e+00 
       4.086267648858e+00       9.641656298909e-01 
       5.144306182540e+00       5.383657910368e-01 
       6.476297779250e+00       2.988218444592e-01 
       8.153175848644e+00       1.649600131718e-01 
       1.026424026268e+01       9.060916273011e-02 
