# Matter power spectrum P(k) at redshift z=0.5
# for k=2.08922e-07 to 10.4837 h/Mpc,
# number of wavenumbers equal to 139
#    1:k (h/Mpc)              2:P (Mpc/h)^3        
       2.089217169486e-07       7.523922233147e-01 
       2.630168585422e-07       9.385216552132e-01 
       3.311186069491e-07       1.170696439693e+00 
       4.168536286061e-07       1.460307437579e+00 
       5.247876260508e-07       1.821563420492e+00 
       6.606684782305e-07       2.272188175204e+00 
       8.317323360158e-07       2.834290059799e+00 
       1.047088973621e-06       3.535446673019e+00 
       1.318206917301e-06       4.410057851530e+00 
       1.659524186193e-06       5.501033374320e+00 
       2.089217169486e-06       6.861898171326e+00 
       2.630168585422e-06       8.559418316917e+00 
       3.311186069491e-06       1.067687663127e+01 
       4.168536286061e-06       1.331815857138e+01 
       5.247876260508e-06       1.661284882864e+01 
       6.606684782305e-06       2.072258858660e+01 
       8.317323360158e-06       2.584900516205e+01 
       1.047088973621e-05       3.224360270603e+01 
       1.318206917301e-05       4.022009853686e+01 
       1.659524186193e-05       5.016980894244e+01 
       2.089217169486e-05       6.258083658746e+01 
       2.630168585422e-05       7.806199548703e+01 
       3.311186069491e-05       9.737263669516e+01 
       4.168536286061e-05       1.214598169453e+02 
       5.247876260508e-05       1.515045923356e+02 
       6.606684782305e-05       1.889796265030e+02 
       8.317323360158e-05       2.357207791170e+02 
       1.047088973621e-04       2.940158721502e+02 
       1.318206917301e-04       3.667143761661e+02 
       1.659524186193e-04       4.573622141673e+02 
       2.089217169486e-04       5.703660413461e+02 
       2.630168585422e-04       7.111908548546e+02 
       3.311186069491e-04       8.865930458829e+02 
       4.168536286061e-04       1.104887352689e+03 
       5.247876260508e-04       1.376240272030e+03 
       6.606684782305e-04       1.712974957427e+03 
       8.317323360158e-04       2.129863338824e+03 
       1.047088973621e-03       2.644358464578e+03 
       1.318206917301e-03       3.276649011081e+03 
       1.659524186193e-03       4.049296636686e+03 
       2.089217169486e-03       4.986229432574e+03 
       2.630168585422e-03       6.110818695492e+03 
       3.311186069491e-03       7.442408207372e+03 
       4.168536286061e-03       8.961074336340e+03 
       5.247876260508e-03       1.070428672310e+04 
       6.606684782305e-03       1.261417283134e+04 
       8.317323360158e-03       1.460824931905e+04 
       1.047088973621e-02       1.654145640007e+04 
       1.318206917301e-02       1.818935888523e+04 
       1.659524186146e-02       1.924691535391e+04 
       2.089217022815e-02       1.937621323423e+04 
       2.630104994197e-02       1.835389954886e+04 
       3.305623549207e-02       1.634049114218e+04 
       4.048291937677e-02       1.424373158823e+04 
       4.611789031988e-02       1.303804601385e+04 
       5.036610759154e-02       1.234830780575e+04 
       5.397620792118e-02       1.187119182306e+04 
       5.725157803098e-02       1.149132251481e+04 
       6.033540514175e-02       1.115376650889e+04 
       6.330678860062e-02       1.082778863147e+04 
       6.621463899086e-02       1.049508690057e+04 
       6.909184242920e-02       1.014528332429e+04 
       7.196201159860e-02       9.773941033704e+03 
       7.484303766275e-02       9.381491397334e+03 
       7.774910645082e-02       8.972416762192e+03 
       8.069191353098e-02       8.554398699825e+03 
       8.368143267776e-02       8.137322451917e+03 
       8.672642145082e-02       7.732135545018e+03 
       8.983476483208e-02       7.349628650695e+03 
       9.301371516484e-02       6.999241725102e+03 
       9.627006342495e-02       6.687999791581e+03 
       9.961026366096e-02       6.419661818983e+03 
       1.030405246550e-01       6.194137519195e+03 
       1.065668781109e-01       6.007215412151e+03 
       1.101952297031e-01       5.850668248416e+03 
       1.139313974184e-01       5.712846055792e+03 
       1.177811403791e-01       5.579896801271e+03 
       1.217501805182e-01       5.437700876385e+03 
       1.258442189321e-01       5.274406686917e+03 
       1.300689483734e-01       5.083122538446e+03 
       1.344300631044e-01       4.863986971317e+03 
       1.389332671761e-01       4.624744392792e+03 
       1.435842820952e-01       4.379290013974e+03 
       1.483888547749e-01       4.144362635049e+03 
       1.533527666286e-01       3.935296245204e+03 
       1.584818446382e-01       3.762054875877e+03 
       1.637819752121e-01       3.626554319705e+03 
       1.692591216400e-01       3.521845340543e+03 
       1.749193459398e-01       3.433507450209e+03 
       1.807688358957e-01       3.343512131466e+03 
       1.868139380849e-01       3.236218048507e+03 
       1.930611977153e-01       3.104674392150e+03 
       1.995174061256e-01       2.953998249168e+03 
       2.061896568695e-01       2.799220144512e+03 
       2.130854114066e-01       2.658149303390e+03 
       2.202125755803e-01       2.542975693099e+03 
       2.275795882858e-01       2.454810522611e+03 
       2.351955240504e-01       2.383429456085e+03 
       2.430702116726e-01       2.312584848526e+03 
       2.512143716470e-01       2.229182523553e+03 
       2.596397758644e-01       2.131391131210e+03 
       2.683594340932e-01       2.029364850217e+03 
       2.773878130857e-01       1.937198451306e+03 
       2.867410959309e-01       1.862377326898e+03 
       2.964374916510e-01       1.800803549148e+03 
       3.064976082275e-01       1.740872166154e+03 
       3.169449065978e-01       1.673733977546e+03 
       3.278062591450e-01       1.601038291426e+03 
       3.391126445735e-01       1.532016118116e+03 
       3.509000229143e-01       1.472865566139e+03 
       3.632104514872e-01       1.420391268621e+03 
       3.760935276808e-01       1.366865844781e+03 
       3.896082818263e-01       1.310079860388e+03 
       4.038257005071e-01       1.255167739185e+03 
       4.188321497140e-01       1.205711941231e+03 
       4.347341098038e-01       1.158381904938e+03 
       4.516648688493e-01       1.109624472749e+03 
       4.697942194233e-01       1.061670404235e+03 
       4.893429047807e-01       1.016319023780e+03 
       5.106048433441e-01       9.709149152230e+02 
       5.339826169882e-01       9.251541404473e+02 
       5.600466599957e-01       8.799935096944e+02 
       5.896391632163e-01       8.336840712645e+02 
       6.240678258598e-01       7.861344021569e+02 
       6.654935458092e-01       7.358768955988e+02 
       7.177696821205e-01       6.813057048081e+02 
       7.883951058753e-01       6.193943971954e+02 
       8.930353299322e-01       5.454323455219e+02 
       1.061724429976e+00       4.548354678809e+02 
       1.320535499015e+00       3.553970187202e+02 
       1.661560051089e+00       2.649807752191e+02 
       2.091769606059e+00       1.890862396744e+02 
       2.633381890282e+00       1.292403612361e+02 
       3.315231380629e+00       8.514144610673e+01 
       4.173629031051e+00       5.448086752786e+01 
       5.254287646592e+00       3.410120065120e+01 
       6.614756239170e+00       2.100055174844e+01 
       8.327484722316e+00       1.278104524635e+01 
       1.048368213325e+01       7.712881444670e+00 
