# Matter power spectrum P(k) at redshift z=0.5
# for k=2.04935e-07 to 10.2819 h/Mpc,
# number of wavenumbers equal to 139
#    1:k (h/Mpc)              2:P (Mpc/h)^3        
       2.049353837902e-07       7.589728833135e-01 
       2.579983624293e-07       9.467302616730e-01 
       3.248006946636e-07       1.180935719328e+00 
       4.088998482803e-07       1.473079744938e+00 
       5.147744098789e-07       1.837495383547e+00 
       6.480625859379e-07       2.292061438221e+00 
       8.158624578703e-07       2.859079630529e+00 
       1.027109980742e-06       3.566368755195e+00 
       1.293054855463e-06       4.448629508158e+00 
       1.627859616386e-06       5.549146946322e+00 
       2.049353837902e-06       6.921914096442e+00 
       2.579983624293e-06       8.634280892960e+00 
       3.248006946635e-06       1.077025838255e+01 
       4.088998482803e-06       1.343464025860e+01 
       5.147744098789e-06       1.675814385207e+01 
       6.480625859379e-06       2.090382263073e+01 
       8.158624578703e-06       2.607506448058e+01 
       1.027109980742e-05       3.252556750108e+01 
       1.293054855463e-05       4.057178144259e+01 
       1.627859616386e-05       5.060842255649e+01 
       2.049353837902e-05       6.312781790664e+01 
       2.579983624293e-05       7.874401803816e+01 
       3.248006946636e-05       9.822284091125e+01 
       4.088998482803e-05       1.225192814758e+02 
       5.147744098789e-05       1.528240441195e+02 
       6.480625859379e-05       1.906213270054e+02 
       8.158624578703e-05       2.377603912636e+02 
       1.027109980742e-04       2.965438351066e+02 
       1.293054855463e-04       3.698357547181e+02 
       1.627859616386e-04       4.611928863079e+02 
       2.049353837902e-04       5.750209712346e+02 
       2.579983624293e-04       7.167562668058e+02 
       3.248006946636e-04       8.930673432613e+02 
       4.088998482803e-04       1.112064117650e+03 
       5.147744098789e-04       1.383489738709e+03 
       6.480625859379e-04       1.718859495856e+03 
       8.158624578703e-04       2.131501733122e+03 
       1.027109980742e-03       2.636427966251e+03 
       1.293054855463e-03       3.249848649543e+03 
       1.627859616386e-03       3.988003768597e+03 
       2.049353837902e-03       4.865114309265e+03 
       2.579983624293e-03       5.890305999555e+03 
       3.248006946636e-03       7.063245408464e+03 
       4.088998482803e-03       8.368708636798e+03 
       5.147744098789e-03       9.770120107250e+03 
       6.480625859379e-03       1.117269017026e+04 
       8.158624578703e-03       1.252738998828e+04 
       1.027109980742e-02       1.367940065915e+04 
       1.293054855463e-02       1.446287588283e+04 
       1.627859616385e-02       1.469585244567e+04 
       2.049353825762e-02       1.422270263865e+04 
       2.579973656445e-02       1.299939447110e+04 
       3.246539608576e-02       1.121111673339e+04 
       4.037397087087e-02       9.383797207826e+03 
       4.715569254614e-02       8.231530207231e+03 
       5.205494982798e-02       7.592971582115e+03 
       5.607670877872e-02       7.146636417801e+03 
       5.965892286240e-02       6.782726835754e+03 
       6.299527926349e-02       6.457678182649e+03 
       6.618765054207e-02       6.151343227133e+03 
       6.929684583631e-02       5.854193052178e+03 
       7.236267357577e-02       5.562452592568e+03 
       7.541311427879e-02       5.275807267708e+03 
       7.846899739378e-02       4.996071029746e+03 
       8.154659213722e-02       4.726253277950e+03 
       8.465913893618e-02       4.469817310000e+03 
       8.781780289267e-02       4.230061026886e+03 
       9.103229303431e-02       4.009607510181e+03 
       9.431127874900e-02       3.810013948504e+03 
       9.766267800643e-02       3.631512903261e+03 
       1.010938616223e-01       3.472898819204e+03 
       1.046118008259e-01       3.331571788193e+03 
       1.082231754863e-01       3.203750553386e+03 
       1.119344543794e-01       3.084863136113e+03 
       1.157519551708e-01       2.970106457587e+03 
       1.196818894303e-01       2.855130951799e+03 
       1.237303964669e-01       2.736752627786e+03 
       1.279035687675e-01       2.613542029864e+03 
       1.322074711553e-01       2.486117728502e+03 
       1.366481553372e-01       2.357009326834e+03 
       1.412316712192e-01       2.230060944843e+03 
       1.459640761666e-01       2.109486854850e+03 
       1.508514432683e-01       1.998812152754e+03 
       1.558998695758e-01       1.899977310418e+03 
       1.611154852424e-01       1.812846416529e+03 
       1.665044644551e-01       1.735262655680e+03 
       1.720730390312e-01       1.663675094360e+03 
       1.778275155384e-01       1.594217964574e+03 
       1.837742967894e-01       1.523950625988e+03 
       1.899199085567e-01       1.451816210545e+03 
       1.962710323551e-01       1.378884727290e+03 
       2.028345451547e-01       1.307711118821e+03 
       2.096175669152e-01       1.241071961413e+03 
       2.166275168920e-01       1.180678259291e+03 
       2.238721797562e-01       1.126474137201e+03 
       2.313597827188e-01       1.076832676241e+03 
       2.390990850571e-01       1.029522499122e+03 
       2.470994817430e-01       9.829202125648e+02 
       2.553711232817e-01       9.367697649591e+02 
       2.639250544240e-01       8.920312572697e+02 
       2.727733751501e-01       8.499709461952e+02 
       2.819294283045e-01       8.111833141365e+02 
       2.914080195489e-01       7.752448061146e+02 
       3.012256770141e-01       7.411747487809e+02 
       3.114009603075e-01       7.082444626121e+02 
       3.219548315930e-01       6.764255837688e+02 
       3.329111056002e-01       6.461398198854e+02 
       3.442970011089e-01       6.176563125895e+02 
       3.561438243478e-01       5.907856051978e+02 
       3.684878258887e-01       5.651219562732e+02 
       3.813712885649e-01       5.404555899442e+02 
       3.948439271821e-01       5.168451867145e+02 
       4.089647152771e-01       4.943448142032e+02 
       4.238043063941e-01       4.728267048488e+02 
       4.394482981772e-01       4.521147593737e+02 
       4.560017157712e-01       4.321403704746e+02 
       4.735952999008e-01       4.128694789981e+02 
       4.923945357311e-01       3.941968649401e+02 
       5.126129677666e-01       3.760021966933e+02 
       5.345324450673e-01       3.581925114188e+02 
       5.585350112744e-01       3.406425776426e+02 
       5.851552495475e-01       3.231957631885e+02 
       6.151704593201e-01       3.056646236455e+02 
       6.497651223811e-01       2.877917738749e+02 
       6.908516343511e-01       2.692134134289e+02 
       7.417454917531e-01       2.493770021071e+02 
       8.087019021126e-01       2.273950084012e+02 
       9.045500822064e-01       2.018453790188e+02 
       1.055611679455e+00       1.710387264397e+02 
       1.296932638982e+00       1.361936993432e+02 
       1.629619061551e+00       1.040621087965e+02 
       2.051505686989e+00       7.741624543695e+01 
       2.582692388963e+00       5.588296455864e+01 
       3.251417079167e+00       3.901657603779e+01 
       4.093291585305e+00       2.634568409937e+01 
       5.153148794624e+00       1.725565975244e+01 
       6.487429968309e+00       1.101151138780e+01 
       8.167190444339e+00       6.878509678818e+00 
       1.028188359334e+01       4.224447893329e+00 
