# Matter power spectrum P(k) at redshift z=0.5
# for k=2.06966e-07 to 10.3835 h/Mpc,
# number of wavenumbers equal to 139
#    1:k (h/Mpc)              2:P (Mpc/h)^3        
       2.069661055261e-07       7.296217188095e-01 
       2.605548896268e-07       9.101181030506e-01 
       3.280191717185e-07       1.135266316487e+00 
       4.129516708320e-07       1.416112485021e+00 
       5.198753522533e-07       1.766435363277e+00 
       6.544842919171e-07       2.203422341707e+00 
       8.239469067146e-07       2.748512685370e+00 
       1.037287698832e-06       3.428449375677e+00 
       1.305867843401e-06       4.276591157976e+00 
       1.643990212503e-06       5.334549164090e+00 
       2.069661055261e-06       6.654228399513e+00 
       2.605548896268e-06       8.300374244743e+00 
       3.280191717185e-06       1.035374888637e+01 
       4.129516708320e-06       1.291509348012e+01 
       5.198753522533e-06       1.611007035974e+01 
       6.544842919171e-06       2.009542761515e+01 
       8.239469067146e-06       2.506668818717e+01 
       1.037287698832e-05       3.126774012942e+01 
       1.305867843401e-05       3.900279739247e+01 
       1.643990212503e-05       4.865131566248e+01 
       2.069661055261e-05       6.068659050302e+01 
       2.605548896268e-05       7.569894133859e+01 
       3.280191717185e-05       9.442460103159e+01 
       4.129516708320e-05       1.177816935803e+02 
       5.198753522533e-05       1.469149963339e+02 
       6.544842919171e-05       1.832515474236e+02 
       8.239469067146e-05       2.285695609236e+02 
       1.037287698832e-04       2.850835105828e+02 
       1.305867843401e-04       3.555485451607e+02 
       1.643990212503e-04       4.433874099294e+02 
       2.069661055261e-04       5.528424060626e+02 
       2.605548896268e-04       6.891530026647e+02 
       3.280191717185e-04       8.587556332714e+02 
       4.129516708320e-04       1.069495078351e+03 
       5.198753522533e-04       1.330826757815e+03 
       6.544842919172e-04       1.653978662227e+03 
       8.239469067146e-04       2.052032329268e+03 
       1.037287698832e-03       2.539855956429e+03 
       1.305867843401e-03       3.133722680820e+03 
       1.643990212503e-03       3.850308885505e+03 
       2.069661055261e-03       4.704864784072e+03 
       2.605548896268e-03       5.708370145546e+03 
       3.280191717185e-03       6.863385164612e+03 
       4.129516708320e-03       8.158695742959e+03 
       5.198753522533e-03       9.562555070346e+03 
       6.544842919172e-03       1.101527276034e+04 
       8.239469067146e-03       1.242217117145e+04 
       1.037287698832e-02       1.364808661525e+04 
       1.305867843401e-02       1.451712178908e+04 
       1.643990212500e-02       1.482597002207e+04 
       2.069661037370e-02       1.438863449674e+04 
       2.605535557147e-02       1.313579660561e+04 
       3.278376375727e-02       1.126235006432e+04 
       4.070019010152e-02       9.374182118123e+03 
       4.734987686892e-02       8.241573755249e+03 
       5.217688604452e-02       7.635309976799e+03 
       5.616137938464e-02       7.222871146489e+03 
       5.972081861280e-02       6.890858768098e+03 
       6.304159983693e-02       6.592834949950e+03 
       6.622250236016e-02       6.306492519452e+03 
       6.932280737949e-02       6.020842535899e+03 
       7.238148044792e-02       5.731376200265e+03 
       7.542599756978e-02       5.437797099848e+03 
       7.847686678715e-02       5.142677691551e+03 
       8.155014225725e-02       4.850457563859e+03 
       8.465891466733e-02       4.566572290026e+03 
       8.781424134898e-02       4.296652501066e+03 
       9.102575153472e-02       4.045799923281e+03 
       9.430205403371e-02       3.817971314678e+03 
       9.765101976430e-02       3.615502895685e+03 
       1.010799822030e-01       3.438800238123e+03 
       1.045958823209e-01       3.286209807165e+03 
       1.082053749505e-01       3.154088958134e+03 
       1.119149077110e-01       3.037101422433e+03 
       1.157307800051e-01       2.928767424539e+03 
       1.196591873004e-01       2.822280443732e+03 
       1.237062544140e-01       2.711539501419e+03 
       1.278780605378e-01       2.592247822417e+03 
       1.321806580890e-01       2.462824491494e+03 
       1.366200870356e-01       2.324833056024e+03 
       1.412023860578e-01       2.182702439032e+03 
       1.459336017173e-01       2.042710581934e+03 
       1.508197966800e-01       1.911448759829e+03 
       1.558670579644e-01       1.794170630369e+03 
       1.610815061328e-01       1.693466649425e+03 
       1.664693063176e-01       1.608602549718e+03 
       1.720366819499e-01       1.535707295456e+03 
       1.777899320496e-01       1.468847470848e+03 
       1.837354529242e-01       1.401832272562e+03 
       1.898797651205e-01       1.330284898060e+03 
       1.962295464769e-01       1.253198660062e+03 
       2.027916721369e-01       1.173185827392e+03 
       2.095732624155e-01       1.095152239475e+03 
       2.165817394717e-01       1.023964844319e+03 
       2.238248938328e-01       9.622418896919e+02 
       2.313109619671e-01       9.093095163035e+02 
       2.390487163143e-01       8.617855930566e+02 
       2.470475694866e-01       8.155130674294e+02 
       2.553176947711e-01       7.678594877308e+02 
       2.638701656221e-01       7.190232725645e+02 
       2.727171175811e-01       6.714640940406e+02 
       2.818719370498e-01       6.278789809842e+02 
       2.913494826508e-01       5.892436865010e+02 
       3.011663466416e-01       5.543330373097e+02 
       3.113411661567e-01       5.209588207420e+02 
       3.218949971491e-01       4.878215285491e+02 
       3.328517681070e-01       4.553533919647e+02 
       3.442388363855e-01       4.248633269554e+02 
       3.560876780163e-01       3.969921419859e+02 
       3.684347531724e-01       3.711328918487e+02 
       3.813226056887e-01       3.462993631269e+02 
       3.948012786930e-01       3.222488251071e+02 
       4.089301635384e-01       2.994605241136e+02 
       4.237804524913e-01       2.781914776880e+02 
       4.394384481662e-01       2.580820801295e+02 
       4.560101137847e-01       2.387768531659e+02 
       4.736274622252e-01       2.203590579930e+02 
       4.924577415736e-01       2.029102030853e+02 
       5.127170008202e-01       1.862224989522e+02 
       5.346907509885e-01       1.701736448460e+02 
       5.587665736383e-01       1.547591251031e+02 
       5.854877670333e-01       1.398422358678e+02 
       6.156460124990e-01       1.253112929321e+02 
       6.504509158603e-01       1.110419623895e+02 
       6.918618559936e-01       9.685907590394e+01 
       7.432894212130e-01       8.254253651793e+01 
       8.111974455721e-01       6.780131044451e+01 
       9.088872763414e-01       5.234816102967e+01 
       1.063474354439e+00       3.644757923736e+01 
       1.309341558637e+00       2.238866280795e+01 
       1.645712352945e+00       1.297880671793e+01 
       2.071779496549e+00       7.427884739553e+00 
       2.608215674376e+00       4.215978687514e+00 
       3.283548991819e+00       2.375204706921e+00 
       4.133743266672e+00       1.329137940118e+00 
       5.204074444246e+00       7.392105384354e-01 
       6.551541562730e+00       4.088146285959e-01 
       8.247902159747e+00       2.249305594075e-01 
       1.038349362290e+01       1.231723348625e-01 
