# Matter power spectrum P(k) at redshift z=0.5
# for k=2.09249e-07 to 10.499 h/Mpc,
# number of wavenumbers equal to 139
#    1:k (h/Mpc)              2:P (Mpc/h)^3        
       2.092490478621e-07       8.261551958593e-01 
       2.634289437473e-07       1.027050121573e+00 
       3.316373914856e-07       1.276796366148e+00 
       4.175067396423e-07       1.587273031555e+00 
       5.256098441311e-07       1.973247842594e+00 
       6.617035894658e-07       2.453079568950e+00 
       8.330354638539e-07       3.049591253199e+00 
       1.048729514371e-06       3.791155779792e+00 
       1.320272235741e-06       4.713045418489e+00 
       1.662124268060e-06       5.859109530989e+00 
       2.092490478621e-06       7.283860237727e+00 
       2.634289437473e-06       9.055065238398e+00 
       3.316373914856e-06       1.125697110412e+01 
       4.175067396423e-06       1.399431032142e+01 
       5.256098441311e-06       1.739728263110e+01 
       6.617035894658e-06       2.162774748627e+01 
       8.330354638539e-06       2.688692195437e+01 
       1.048729514371e-05       3.342494978752e+01 
       1.320272235741e-05       4.155279597420e+01 
       1.662124268060e-05       5.165703086876e+01 
       2.092490478621e-05       6.421820386389e+01 
       2.634289437473e-05       7.983367411305e+01 
       3.316373914856e-05       9.924597164196e+01 
       4.175067396423e-05       1.233780129847e+02 
       5.256098441311e-05       1.533767976215e+02 
       6.617035894658e-05       1.906675677698e+02 
       8.330354638539e-05       2.370208202487e+02 
       1.048729514371e-04       2.946349917373e+02 
       1.320272235741e-04       3.662380405439e+02 
       1.662124268060e-04       4.552113915150e+02 
       2.092490478621e-04       5.657395521704e+02 
       2.634289437473e-04       7.029877218109e+02 
       3.316373914856e-04       8.733072675963e+02 
       4.175067396423e-04       1.084464340261e+03 
       5.256098441311e-04       1.345879963918e+03 
       6.617035894658e-04       1.668861754487e+03 
       8.330354638539e-04       2.066798348300e+03 
       1.048729514371e-03       2.555264608409e+03 
       1.320272235741e-03       3.151909529323e+03 
       1.662124268060e-03       3.875885227814e+03 
       2.092490478621e-03       4.746581918855e+03 
       2.634289437473e-03       5.781429364202e+03 
       3.316373914856e-03       6.992350533523e+03 
       4.175067396423e-03       8.380590860957e+03 
       5.256098441311e-03       9.897665122499e+03 
       6.617035894658e-03       1.154712856411e+04 
       8.330354638539e-03       1.322165463121e+04 
       1.048729514371e-02       1.478175597347e+04 
       1.320272235741e-02       1.602441285539e+04 
       1.662124268039e-02       1.668834550268e+04 
       2.092490399436e-02       1.650252706730e+04 
       2.634249094150e-02       1.531753436468e+04 
       3.312347784307e-02       1.332624374495e+04 
       4.076156823480e-02       1.132790557849e+04 
       4.671326154024e-02       1.019584795679e+04 
       5.114401988677e-02       9.574215233939e+03 
       5.487825882878e-02       9.153068054684e+03 
       5.825123231650e-02       8.820255061248e+03 
       6.141855072597e-02       8.524962032002e+03 
       6.446513321006e-02       8.240064523967e+03 
       6.744302776063e-02       7.950266940628e+03 
       7.038699519975e-02       7.647578328848e+03 
       7.332185986713e-02       7.329266449355e+03 
       7.626634661537e-02       6.996694812854e+03 
       7.923524547261e-02       6.654428685830e+03 
       8.224070982111e-02       6.309359209700e+03 
       8.529307416208e-02       5.969763983783e+03 
       8.840139036914e-02       5.644314333441e+03 
       9.157379118903e-02       5.341091091677e+03 
       9.481774348434e-02       5.066687463716e+03 
       9.814022867269e-02       4.825470898951e+03 
       1.015478736399e-01       4.619052848030e+03 
       1.050470470642e-01       4.445994080670e+03 
       1.086439310204e-01       4.301770588926e+03 
       1.123445745621e-01       4.179046551009e+03 
       1.161549339593e-01       4.068329393685e+03 
       1.200809029459e-01       3.959083839145e+03 
       1.241283354644e-01       3.841306701499e+03 
       1.283030628156e-01       3.707393184505e+03 
       1.326109067372e-01       3.553895411151e+03 
       1.370576896785e-01       3.382606514701e+03 
       1.416492433708e-01       3.200446769935e+03 
       1.463914166853e-01       3.017957063051e+03 
       1.512900837010e-01       2.846711946696e+03 
       1.563511528624e-01       2.696381947451e+03 
       1.615805780800e-01       2.572267829144e+03 
       1.669843726088e-01       2.473904329838e+03 
       1.725686265298e-01       2.395039981807e+03 
       1.783395286499e-01       2.325145642112e+03 
       1.843033936352e-01       2.252450584995e+03 
       1.904666951952e-01       2.167976375329e+03 
       1.968361061526e-01       2.069121659882e+03 
       2.034185462688e-01       1.960837688889e+03 
       2.102212387582e-01       1.853310223981e+03 
       2.172517765254e-01       1.757105016350e+03 
       2.245181993145e-01       1.678283929658e+03 
       2.320290831843e-01       1.615826102985e+03 
       2.397936440323e-01       1.562412287794e+03 
       2.478218573202e-01       1.508370443069e+03 
       2.561245967278e-01       1.447178475126e+03 
       2.647137952230e-01       1.379300510257e+03 
       2.736026330502e-01       1.311316661103e+03 
       2.828057584700e-01       1.250721797539e+03 
       2.923395488599e-01       1.200434437037e+03 
       3.022224221453e-01       1.157102725097e+03 
       3.124752117080e-01       1.114307770992e+03 
       3.231216222444e-01       1.068184223367e+03 
       3.341887899866e-01       1.020504886088e+03 
       3.457079789952e-01       9.760634026843e+02 
       3.577154569719e-01       9.372282635519e+02 
       3.702536109195e-01       9.017119319373e+02 
       3.833723876959e-01       8.658406471488e+02 
       3.971311813588e-01       8.291511726737e+02 
       4.116013453154e-01       7.942119731052e+02 
       4.268695946784e-01       7.622058443295e+02 
       4.430427037529e-01       7.313033208329e+02 
       4.602541326211e-01       7.001602856976e+02 
       4.786736045997e-01       6.698880839084e+02 
       4.985213362296e-01       6.409626645032e+02 
       5.200898611731e-01       6.121638037188e+02 
       5.437787529402e-01       5.834480253307e+02 
       5.701522917768e-01       5.550087711607e+02 
       6.000401917469e-01       5.260377138072e+02 
       6.347243248744e-01       4.963389498623e+02 
       6.763098146536e-01       4.650773936660e+02 
       7.285225508575e-01       4.312369922720e+02 
       7.985553552473e-01       3.930080056003e+02 
       9.013796874838e-01       3.475434904411e+02 
       1.066383053478e+00       2.918918860638e+02 
       1.322762210262e+00       2.302987267201e+02 
       1.663988922537e+00       1.743669260094e+02 
       2.094820672847e+00       1.273665323250e+02 
       2.637222934820e+00       8.946253139457e+01 
       3.320066969197e+00       6.050521441262e+01 
       4.179716676381e+00       3.960098848110e+01 
       5.261951537995e+00       2.523705431995e+01 
       6.624404506812e+00       1.575056598451e+01 
       8.339631171629e+00       9.674384515278e+00 
       1.049897360695e+01       5.871544797390e+00 
