# Matter power spectrum P(k) at redshift z=2.5
# for k=2.09374e-07 to 10.5049 h/Mpc,
# number of wavenumbers equal to 139
#    1:k (h/Mpc)              2:P (Mpc/h)^3        
       2.093744621083e-07       1.302643687976e-01 
       2.635868309288e-07       1.629054594764e-01 
       3.318361596706e-07       2.037256155877e-01 
       4.177569739615e-07       2.547743123976e-01 
       5.259248704744e-07       3.186145741148e-01 
       6.621001841347e-07       3.984516561715e-01 
       8.335347469608e-07       4.982939732221e-01 
       1.049358074562e-06       6.231543508187e-01 
       1.321063546138e-06       7.793017058879e-01 
       1.663120468828e-06       9.745757922511e-01 
       2.093744621083e-06       1.218780811597e+00 
       2.635868309288e-06       1.524177652924e+00 
       3.318361596706e-06       1.906099471430e+00 
       4.177569739615e-06       2.383721508206e+00 
       5.259248704744e-06       2.981023793987e+00 
       6.621001841347e-06       3.727995053953e+00 
       8.335347469608e-06       4.662138221891e+00 
       1.049358074562e-05       5.830353084856e+00 
       1.321063546138e-05       7.291290445087e+00 
       1.663120468828e-05       9.118295719613e+00 
       2.093744621083e-05       1.140308923545e+01 
       2.635868309288e-05       1.426036693241e+01 
       3.318361596706e-05       1.783355034989e+01 
       4.177569739615e-05       2.230197041302e+01 
       5.259248704744e-05       2.788983743794e+01 
       6.621001841347e-05       3.487743130637e+01 
       8.335347469608e-05       4.361504141737e+01 
       1.049358074562e-04       5.454029244265e+01 
       1.321063546138e-04       6.819960056789e+01 
       1.663120468828e-04       8.527459231316e+01 
       2.093744621083e-04       1.066143363903e+02 
       2.635868309288e-04       1.332740940334e+02 
       3.318361596706e-04       1.665608159371e+02 
       4.177569739615e-04       2.080845387422e+02 
       5.259248704744e-04       2.598128310305e+02 
       6.621001841347e-04       3.241223417662e+02 
       8.335347469608e-04       4.038378692981e+02 
       1.049358074562e-03       5.022468629714e+02 
       1.321063546138e-03       6.230756145671e+02 
       1.663120468828e-03       7.703988064603e+02 
       2.093744621083e-03       9.484013486558e+02 
       2.635868309288e-03       1.160880402266e+03 
       3.318361596706e-03       1.410494171915e+03 
       4.177569739615e-03       1.697671035520e+03 
       5.259248704744e-03       2.017659490233e+03 
       6.621001841347e-03       2.363258770953e+03 
       8.335347469608e-03       2.715802825713e+03 
       1.049358074562e-02       3.046296608748e+03 
       1.321063546138e-02       3.312286533660e+03 
       1.663120468813e-02       3.458771944620e+03 
       2.093744560688e-02       3.428081425111e+03 
       2.635835291514e-02       3.187258639790e+03 
       3.314871526675e-02       2.774609979374e+03 
       4.087003954908e-02       2.354360220655e+03 
       4.696403392672e-02       2.114613929594e+03 
       5.147698041020e-02       1.984881261203e+03 
       5.526638758742e-02       1.897650625765e+03 
       5.868239784395e-02       1.828693943716e+03 
       6.188635555172e-02       1.767160846281e+03 
       6.496583674479e-02       1.707322273576e+03 
       6.797431023261e-02       1.645998167152e+03 
       7.094738067818e-02       1.581580547660e+03 
       7.391041519521e-02       1.513590124605e+03 
       7.688251061425e-02       1.442419788878e+03 
       7.987872562876e-02       1.369135183925e+03 
       8.291141658190e-02       1.295280087856e+03 
       8.599107746125e-02       1.222670070503e+03 
       8.912688994364e-02       1.153178528705e+03 
       9.232709580428e-02       1.088526884986e+03 
       9.559925611322e-02       1.030096061256e+03 
       9.895043577011e-02       9.787730442030e+02 
       1.023873373046e-01       9.348427683801e+02 
       1.059163992780e-01       8.979311076800e+02 
       1.095438694075e-01       8.670055826710e+02 
       1.132758592754e-01       8.404453664260e+02 
       1.171183854090e-01       8.161960706994e+02 
       1.210774001617e-01       7.920231259945e+02 
       1.251588149322e-01       7.658568380667e+02 
       1.293685176699e-01       7.361845395767e+02 
       1.337123862139e-01       7.024012340860e+02 
       1.381962987552e-01       6.650032285455e+02 
       1.428261425375e-01       6.255291895300e+02 
       1.476078218009e-01       5.862219278443e+02 
       1.525472659022e-01       5.494831732758e+02 
       1.576504385011e-01       5.172692596310e+02 
       1.629233486748e-01       4.905919211391e+02 
       1.683720648046e-01       4.692470371875e+02 
       1.740027320675e-01       4.518406155990e+02 
       1.798215943568e-01       4.361439863951e+02 
       1.858350214541e-01       4.197585587623e+02 
       1.920495422778e-01       4.009461907399e+02 
       1.984718850501e-01       3.793118808946e+02 
       2.051090252585e-01       3.559684539721e+02 
       2.119682423517e-01       3.330164906765e+02 
       2.190571862076e-01       3.125570324508e+02 
       2.263839545690e-01       2.957274005392e+02 
       2.339571828609e-01       2.822176260034e+02 
       2.417861481171e-01       2.704831368455e+02 
       2.498808891701e-01       2.585913509053e+02 
       2.582523458286e-01       2.453228180439e+02 
       2.669125205337e-01       2.308657552131e+02 
       2.758746669893e-01       2.165669864060e+02 
       2.851535115999e-01       2.038806678733e+02 
       2.947655153160e-01       1.933103004774e+02 
       3.047291858447e-01       1.841284224915e+02 
       3.150654533578e-01       1.750646084913e+02 
       3.257981271358e-01       1.654134504300e+02 
       3.369544565156e-01       1.555750974760e+02 
       3.485658277708e-01       1.464879194579e+02 
       3.606686402403e-01       1.385705616567e+02 
       3.733054218258e-01       1.313368357240e+02 
       3.865262685433e-01       1.240781983771e+02 
       4.003907294434e-01       1.167406020262e+02 
       4.149703139135e-01       1.098347788775e+02 
       4.303518850532e-01       1.035670139980e+02 
       4.466423410561e-01       9.756493911031e+01 
       4.639752132094e-01       9.158349068005e+01 
       4.825201924358e-01       8.585496456693e+01 
       5.024972673518e-01       8.046450524889e+01 
       5.241983784140e-01       7.517437110422e+01 
       5.480218174245e-01       6.999606865330e+01 
       5.745292543718e-01       6.497957349024e+01 
       6.045451343972e-01       5.998524967736e+01 
       6.393404739674e-01       5.501439669942e+01 
       6.809970743152e-01       4.995810953081e+01 
       7.331877999910e-01       4.471950424011e+01 
       8.029785156322e-01       3.912938369136e+01 
       9.050491949437e-01       3.298502653007e+01 
       1.068467890515e+00       2.625766016152e+01 
       1.323665391786e+00       1.982195162067e+01 
       1.664925462052e+00       1.483654245581e+01 
       2.095995728935e+00       1.114475371597e+01 
       2.638702228807e+00       8.344619528091e+00 
       3.321929289982e+00       6.181300513582e+00 
       4.182061199342e+00       4.500434371181e+00 
       5.264903117530e+00       3.203849349996e+00 
       6.628120325293e+00       2.221752480662e+00 
       8.344309109940e+00       1.497280209178e+00 
       1.050486278237e+01       9.799094542349e-01 
