# Matter power spectrum P(k) at redshift z=0
# for k=2.03594e-07 to 10.2143 h/Mpc,
# number of wavenumbers equal to 139
#    1:k (h/Mpc)              2:P (Mpc/h)^3        
       2.035937311942e-07       1.286896891378e+00 
       2.563093218824e-07       1.605253965605e+00 
       3.226743185974e-07       2.002367330437e+00 
       4.062228994157e-07       2.497719992598e+00 
       5.114043309271e-07       3.115614732366e+00 
       6.438199079057e-07       3.886366435221e+00 
       8.105212426815e-07       4.847789384760e+00 
       1.020385789211e-06       6.047052486224e+00 
       1.284589599871e-06       7.542993436850e+00 
       1.617202491004e-06       9.409005376403e+00 
       2.035937311942e-06       1.173663762939e+01 
       2.563093218824e-06       1.464008717898e+01 
       3.226743185974e-06       1.826180119472e+01 
       4.062228994157e-06       2.277946540329e+01 
       5.114043309271e-06       2.841472101202e+01 
       6.438199079057e-06       3.544403756034e+01 
       8.105212426815e-06       4.421227453816e+01 
       1.020385789211e-05       5.514959597774e+01 
       1.284589599871e-05       6.879256555575e+01 
       1.617202491004e-05       8.581045264435e+01 
       2.035937311942e-05       1.070380309353e+02 
       2.563093218824e-05       1.335164610481e+02 
       3.226743185974e-05       1.665442278927e+02 
       4.062228994157e-05       2.077405627391e+02 
       5.114043309271e-05       2.591243254981e+02 
       6.438199079057e-05       3.232119494626e+02 
       8.105212426815e-05       4.031387289725e+02 
       1.020385789211e-04       5.028083759207e+02 
       1.284589599871e-04       6.270761985383e+02 
       1.617202491004e-04       7.819710928853e+02 
       2.035937311942e-04       9.749601113266e+02 
       2.563093218824e-04       1.215255608181e+03 
       3.226743185974e-04       1.514157492307e+03 
       4.062228994157e-04       1.885411030176e+03 
       5.114043309271e-04       2.345545142057e+03 
       6.438199079057e-04       2.914140377060e+03 
       8.105212426815e-04       3.613950985426e+03 
       1.020385789211e-03       4.470717240077e+03 
       1.284589599871e-03       5.512308154625e+03 
       1.617202491004e-03       6.766779587144e+03 
       2.035937311942e-03       8.259086030341e+03 
       2.563093218824e-03       1.000588877061e+04 
       3.226743185974e-03       1.200825573006e+04 
       4.062228994157e-03       1.424242264094e+04 
       5.114043309271e-03       1.664879876831e+04 
       6.438199079057e-03       1.903094092441e+04 
       8.105212426815e-03       2.136950615648e+04 
       1.020385789211e-02       2.337800184277e+04 
       1.284589599871e-02       2.477893875192e+04 
       1.617202491001e-02       2.526918301913e+04 
       2.035937293831e-02       2.459037100003e+04 
       2.563079814235e-02       2.266594500127e+04 
       3.224929785757e-02       1.978667095716e+04 
       4.003114397758e-02       1.680612869386e+04 
       4.655763995281e-02       1.490039967310e+04 
       5.129710651221e-02       1.379785723348e+04 
       5.521096850921e-02       1.300464134327e+04 
       5.870808217945e-02       1.234961995428e+04 
       6.197113491776e-02       1.176364232797e+04 
       6.509699590453e-02       1.121439025550e+04 
       6.814382374744e-02       1.068639963299e+04 
       7.114985787135e-02       1.017332033120e+04 
       7.414206883393e-02       9.674221656979e+03 
       7.714059146510e-02       9.191440721454e+03 
       8.016119045659e-02       8.729087371064e+03 
       8.321672235619e-02       8.291874445266e+03 
       8.631804810973e-02       7.884158005858e+03 
       8.947462697019e-02       7.509163323375e+03 
       9.269491657889e-02       7.168406750504e+03 
       9.598665026279e-02       6.861334584018e+03 
       9.935703378524e-02       6.585202062601e+03 
       1.028128876177e-01       6.335213568478e+03 
       1.063607513565e-01       6.104942354306e+03 
       1.100069612033e-01       5.887032915990e+03 
       1.137577078840e-01       5.674150973183e+03 
       1.176190801208e-01       5.460080839522e+03 
       1.215970973087e-01       5.240785617794e+03 
       1.256977340842e-01       5.015178238658e+03 
       1.299269388311e-01       4.785346826823e+03 
       1.342906477460e-01       4.556075097696e+03 
       1.387947957980e-01       4.333687408876e+03 
       1.434453257347e-01       4.124466272843e+03 
       1.482481961623e-01       3.933044485331e+03 
       1.532093896542e-01       3.761202150636e+03 
       1.583349217894e-01       3.607404224142e+03 
       1.636308519983e-01       3.467244230429e+03 
       1.691032970673e-01       3.334749334886e+03 
       1.747584481474e-01       3.204244931681e+03 
       1.806025920985e-01       3.072201251135e+03 
       1.866421380002e-01       2.938332160359e+03 
       1.928836496612e-01       2.805397114619e+03 
       1.993338849733e-01       2.677716356581e+03 
       2.059998429884e-01       2.559071850168e+03 
       2.128888196522e-01       2.450999783234e+03 
       2.200084732266e-01       2.352275627749e+03 
       2.273669005739e-01       2.259792143168e+03 
       2.349727256918e-01       2.170332262018e+03 
       2.428352021830e-01       2.082237204170e+03 
       2.509643317542e-01       1.995981955199e+03 
       2.593710013917e-01       1.913352395682e+03 
       2.680671425932e-01       1.835893067311e+03 
       2.770659170112e-01       1.763785056483e+03 
       2.863819341491e-01       1.695902646718e+03 
       2.960315084554e-01       1.630837760056e+03 
       3.060329654323e-01       1.567938755036e+03 
       3.164070094241e-01       1.507491452485e+03 
       3.271771698843e-01       1.450034180131e+03 
       3.383703485980e-01       1.395618239970e+03 
       3.500174982248e-01       1.343751057832e+03 
       3.621544736700e-01       1.293920907266e+03 
       3.748231137531e-01       1.245985755772e+03 
       3.880726339294e-01       1.200011523182e+03 
       4.019614454071e-01       1.155912203317e+03 
       4.165595684348e-01       1.113417676849e+03 
       4.319518888011e-01       1.072306607879e+03 
       4.482426356550e-01       1.032469830553e+03 
       4.655616693898e-01       9.937616952500e+02 
       4.840735226301e-01       9.559601044770e+02 
       5.039907539243e-01       9.188505747676e+02 
       5.255942885944e-01       8.822083887764e+02 
       5.492655265518e-01       8.457410783900e+02 
       5.755391739887e-01       8.090924875056e+02 
       6.051945216193e-01       7.718011390201e+02 
       6.394224869689e-01       7.332277861497e+02 
       6.801526636739e-01       6.924337023546e+02 
       7.307448287779e-01       6.479466370050e+02 
       7.975687257383e-01       5.973092151825e+02 
       8.937353244539e-01       5.363695785681e+02 
       1.045957714685e+00       4.595714784662e+02 
       1.287976892439e+00       3.685063460508e+02 
       1.618893829041e+00       2.807088398007e+02 
       2.038018721127e+00       2.056135713650e+02 
       2.565713383870e+00       1.449152731545e+02 
       3.230041778246e+00       9.862097563522e+01 
       4.066381675790e+00       6.515883331202e+01 
       5.119271225707e+00       4.203014975614e+01 
       6.444780635909e+00       2.660396911090e+01 
       8.113498115985e+00       1.659617897228e+01 
       1.021428895676e+01       1.023918976929e+01 
