# Matter power spectrum P(k) at redshift z=0
# for k=2.07848e-07 to 10.4277 h/Mpc,
# number of wavenumbers equal to 139
#    1:k (h/Mpc)              2:P (Mpc/h)^3        
       2.078479058040e-07       1.201165093516e+00 
       2.616650104049e-07       1.498313534555e+00 
       3.294167309761e-07       1.868971600199e+00 
       4.147110936960e-07       2.331324358940e+00 
       5.220903344068e-07       2.908055564301e+00 
       6.572727892369e-07       3.627460554836e+00 
       8.274574168511e-07       4.524834465844e+00 
       1.041707169251e-06       5.644203860405e+00 
       1.311431627019e-06       7.040486733646e+00 
       1.650994601085e-06       8.782186861005e+00 
       2.078479058040e-06       1.095475466937e+01 
       2.616650104049e-06       1.366477950679e+01 
       3.294167309761e-06       1.704521896209e+01 
       4.147110936960e-06       2.126192172899e+01 
       5.220903344068e-06       2.652176392208e+01 
       6.572727892369e-06       3.308279779273e+01 
       8.274574168511e-06       4.126691029391e+01 
       1.041707169251e-05       5.147561163330e+01 
       1.311431627019e-05       6.420972663752e+01 
       1.650994601085e-05       8.009395143603e+01 
       2.078479058040e-05       9.990747327031e+01 
       2.616650104049e-05       1.246221417679e+02 
       3.294167309761e-05       1.554500370597e+02 
       4.147110936960e-05       1.939027144367e+02 
       5.220903344068e-05       2.418649256687e+02 
       6.572727892369e-05       3.016862242990e+02 
       8.274574168511e-05       3.762945382339e+02 
       1.041707169251e-04       4.693364792034e+02 
       1.311431627019e-04       5.853497177066e+02 
       1.650994601085e-04       7.299729009949e+02 
       2.078479058040e-04       9.101978089975e+02 
       2.616650104049e-04       1.134665879506e+03 
       3.294167309761e-04       1.414005769677e+03 
       4.147110936960e-04       1.761199389986e+03 
       5.220903344068e-04       2.191951426810e+03 
       6.572727892369e-04       2.725023612100e+03 
       8.274574168511e-04       3.382472553725e+03 
       1.041707169251e-03       4.189656399870e+03 
       1.311431627019e-03       5.174713512045e+03 
       1.650994601085e-03       6.367142711919e+03 
       2.078479058040e-03       7.795172491963e+03 
       2.616650104049e-03       9.481318732583e+03 
       3.294167309761e-03       1.143576620103e+04 
       4.147110936960e-03       1.364743583778e+04 
       5.220903344068e-03       1.607207143336e+04 
       6.572727892369e-03       1.861817456933e+04 
       8.274574168511e-03       2.113207721345e+04 
       1.041707169251e-02       2.338389741969e+04 
       1.311431627019e-02       2.506123801870e+04 
       1.650994601078e-02       2.578714546042e+04 
       2.078479025913e-02       2.519842941684e+04 
       2.616629468228e-02       2.313313525999e+04 
       3.291679992735e-02       1.992224005626e+04 
       4.074139523625e-02       1.670023136143e+04 
       4.711358641882e-02       1.482432069303e+04 
       5.178034109988e-02       1.381547456456e+04 
       5.566486697202e-02       1.313056241294e+04 
       5.915039650361e-02       1.258132149309e+04 
       6.241063325482e-02       1.208762697029e+04 
       6.553870113187e-02       1.160945170364e+04 
       6.859095231373e-02       1.112612977215e+04 
       7.160465927657e-02       1.062848400627e+04 
       7.460623495853e-02       1.011515449564e+04 
       7.761547502277e-02       9.590418801094e+03 
       8.064793009395e-02       9.062520184454e+03 
       8.371631845426e-02       8.542136241156e+03 
       8.683141088703e-02       8.040888132480e+03 
       9.000260820544e-02       7.569912170879e+03 
       9.323833121834e-02       7.138572388137e+03 
       9.654629154374e-02       6.753396435932e+03 
       9.993368406516e-02       6.417300860216e+03 
       1.034073262747e-01       6.129146797748e+03 
       1.069737606393e-01       5.883658974652e+03 
       1.106393306122e-01       5.671757624099e+03 
       1.144102374767e-01       5.481377322697e+03 
       1.182925830199e-01       5.298845572916e+03 
       1.222924016105e-01       5.110810475336e+03 
       1.264156843174e-01       4.906525613304e+03 
       1.306683970840e-01       4.680054418752e+03 
       1.350564945567e-01       4.431768823656e+03 
       1.395859308924e-01       4.168532109579e+03 
       1.442626686872e-01       3.902262562498e+03 
       1.490926870520e-01       3.647095516386e+03 
       1.540819897861e-01       3.415866952627e+03 
       1.592366145517e-01       3.216874851891e+03 
       1.645626439270e-01       3.051756112905e+03 
       1.700662191916e-01       2.915006476063e+03 
       1.757535576903e-01       2.795379604282e+03 
       1.816309746097e-01       2.679111473853e+03 
       1.877049100017e-01       2.554375897116e+03 
       1.939819618879e-01       2.415548935928e+03 
       2.004689262961e-01       2.265318766473e+03 
       2.071728451134e-01       2.113261598487e+03 
       2.141010626977e-01       1.971274897546e+03 
       2.212612922932e-01       1.848056559300e+03 
       2.286616934392e-01       1.745306359848e+03 
       2.363109617851e-01       1.657375072487e+03 
       2.442184330285e-01       1.574540561431e+03 
       2.523942031142e-01       1.488443405869e+03 
       2.608492673976e-01       1.396719063626e+03 
       2.695956822296e-01       1.303743355347e+03 
       2.786467534169e-01       1.216834112636e+03 
       2.880172573307e-01       1.140730204752e+03 
       2.977237021845e-01       1.074465231358e+03 
       3.077846393274e-01       1.012800787928e+03 
       3.182210375338e-01       9.508955362051e+02 
       3.290567375114e-01       8.881911646522e+02 
       3.403190096878e-01       8.279882386321e+02 
       3.520392464604e-01       7.733771418839e+02 
       3.642538315662e-01       7.239937388811e+02 
       3.770052457064e-01       6.769745050049e+02 
       3.903434916099e-01       6.305946474242e+02 
       4.043279575103e-01       5.858958998778e+02 
       4.190298923448e-01       5.444196960200e+02 
       4.345357503516e-01       5.057251547564e+02 
       4.509517969974e-01       4.684008622054e+02 
       4.684105877421e-01       4.323752040186e+02 
       4.870803014011e-01       3.983321246704e+02 
       5.071785559492e-01       3.659074937936e+02 
       5.289935065006e-01       3.345206398977e+02 
       5.529172460975e-01       3.043392823701e+02 
       5.795009540093e-01       2.751418371681e+02 
       6.095505626859e-01       2.465925460066e+02 
       6.443026686269e-01       2.185321118308e+02 
       6.857708616632e-01       1.905553832471e+02 
       7.374824674737e-01       1.622320861051e+02 
       8.061703385193e-01       1.329622126144e+02 
       9.057567489508e-01       1.021918660166e+02 
       1.064277943016e+00       7.061625632536e+01 
       1.314390404397e+00       4.316886201335e+01 
       1.652708279538e+00       2.505994156586e+01 
       2.080603163539e+00       1.437188397037e+01 
       2.619324088913e+00       8.172897000873e+00 
       3.297533657211e+00       4.612442575896e+00 
       4.151348917310e+00       2.585148326569e+00 
       5.226238645225e+00       1.439822669645e+00 
       6.579444638575e+00       7.973318047706e-01 
       8.283030050995e+00       4.392224094905e-01 
       1.042771701785e+01       2.407843927622e-01 
