# Matter power spectrum P(k) at redshift z=2.5
# for k=2.06108e-07 to 10.3433 h/Mpc,
# number of wavenumbers equal to 139
#    1:k (h/Mpc)              2:P (Mpc/h)^3        
       2.061078463824e-07       1.579307659306e-01 
       2.594744053809e-07       1.970002337005e-01 
       3.266589226442e-07       2.457348436172e-01 
       4.112392187061e-07       3.065255924622e-01 
       5.177195027555e-07       3.823549701975e-01 
       6.517702382003e-07       4.769432852184e-01 
       8.205301155215e-07       5.949311889735e-01 
       1.032986213572e-06       7.421073528602e-01 
       1.300452594299e-06       9.256924688651e-01 
       1.637172817797e-06       1.154693507790e+00 
       2.061078463824e-06       1.440345611646e+00 
       2.594744053809e-06       1.796663303702e+00 
       3.266589226442e-06       2.241128053453e+00 
       4.112392187061e-06       2.795545926019e+00 
       5.177195027555e-06       3.487117384779e+00 
       6.517702382003e-06       4.349771716873e+00 
       8.205301155215e-06       5.425831511316e+00 
       1.032986213572e-05       6.768088788773e+00 
       1.300452594299e-05       8.442394488979e+00 
       1.637172817797e-05       1.053088811206e+01 
       2.061078463824e-05       1.313602539279e+01 
       2.594744053809e-05       1.638560057325e+01 
       3.266589226442e-05       2.043900755124e+01 
       4.112392187061e-05       2.549504292329e+01 
       5.177195027555e-05       3.180162553096e+01 
       6.517702382003e-05       3.966789314596e+01 
       8.205301155215e-05       4.947923779185e+01 
       1.032986213572e-04       6.171595449817e+01 
       1.300452594299e-04       7.697629507148e+01 
       1.637172817797e-04       9.600481727344e+01 
       2.061078463824e-04       1.197269540022e+02 
       2.594744053809e-04       1.492906060203e+02 
       3.266589226442e-04       1.861151231699e+02 
       4.112392187061e-04       2.319470252201e+02 
       5.177195027555e-04       2.889199047213e+02 
       6.517702382003e-04       3.596129740143e+02 
       8.205301155215e-04       4.470991485996e+02 
       1.032986213572e-03       5.549708529102e+02 
       1.300452594299e-03       6.873293330470e+02 
       1.637172817797e-03       8.487077674022e+02 
       2.061078463824e-03       1.043846798484e+03 
       2.594744053809e-03       1.277207184942e+03 
       3.266589226442e-03       1.552219350335e+03 
       4.112392187061e-03       1.870145902548e+03 
       5.177195027555e-03       2.228399903756e+03 
       6.517702382003e-03       2.618290658758e+03 
       8.205301155215e-03       3.022195507562e+03 
       1.032986213572e-02       3.410320031899e+03 
       1.300452594299e-02       3.738018604611e+03 
       1.637172817715e-02       3.946429456607e+03 
       2.061078243251e-02       3.972647147868e+03 
       2.594658451246e-02       3.778281914788e+03 
       3.259750979618e-02       3.399049626571e+03 
       3.977306784671e-02       3.010233926994e+03 
       4.513216273966e-02       2.782555363822e+03 
       4.920881312743e-02       2.643494403628e+03 
       5.269215508072e-02       2.540785607336e+03 
       5.586191603722e-02       2.454361784761e+03 
       5.885163700095e-02       2.374716977138e+03 
       6.173570291597e-02       2.296698216523e+03 
       6.456038679423e-02       2.217435999845e+03 
       6.735694508233e-02       2.135515120326e+03 
       7.014790375541e-02       2.050578993539e+03 
       7.295038351431e-02       1.963090060346e+03 
       7.577799524054e-02       1.874138808768e+03 
       7.864198615817e-02       1.785257467108e+03 
       8.155196670321e-02       1.698221933106e+03 
       8.451638981258e-02       1.614845113637e+03 
       8.754287729912e-02       1.536772139731e+03 
       9.063844808769e-02       1.465290864673e+03 
       9.380968133561e-02       1.401173695862e+03 
       9.706283506745e-02       1.344563525786e+03 
       1.004039336242e-01       1.294917194878e+03 
       1.038388327508e-01       1.251019316264e+03 
       1.073732683385e-01       1.211081676567e+03 
       1.110128930377e-01       1.172941916083e+03 
       1.147633037822e-01       1.134361661488e+03 
       1.186300624890e-01       1.093400916130e+03 
       1.226187116818e-01       1.048806998853e+03 
       1.267347864423e-01       1.000322687501e+03 
       1.309838238647e-01       9.488080458311e+02 
       1.353713710418e-01       8.961002655210e+02 
       1.399029925106e-01       8.446105144671e+02 
       1.445842780306e-01       7.967417633568e+02 
       1.494208515226e-01       7.542774246154e+02 
       1.544183819792e-01       7.179026781593e+02 
       1.595825971386e-01       6.869909199908e+02 
       1.649193007022e-01       6.597376924103e+02 
       1.704343938755e-01       6.336643638312e+02 
       1.761339020020e-01       6.064124760896e+02 
       1.820240070726e-01       5.765971646827e+02 
       1.881110869067e-01       5.443590993637e+02 
       1.944017618401e-01       5.112958399859e+02 
       2.009029498171e-01       4.797285148936e+02 
       2.076219308927e-01       4.516242889214e+02 
       2.145664223011e-01       4.276935369344e+02 
       2.217446654741e-01       4.070976502515e+02 
       2.291655267040e-01       3.879314781152e+02 
       2.368386135722e-01       3.682902741097e+02 
       2.447744098324e-01       3.473642794996e+02 
       2.529844321999e-01       3.258500724351e+02 
       2.614814134969e-01       3.053402927819e+02 
       2.702795179334e-01       2.871118589890e+02 
       2.793945960619e-01       2.712184018000e+02 
       2.888444892927e-01       2.565642277576e+02 
       2.986493970276e-01       2.418927371359e+02 
       3.088323237763e-01       2.268565608512e+02 
       3.194196295695e-01       2.121777416495e+02 
       3.304417152911e-01       1.987490224821e+02 
       3.419338863433e-01       1.866546213682e+02 
       3.539374550641e-01       1.751822499679e+02 
       3.665011672743e-01       1.637571222816e+02 
       3.796830756668e-01       1.525889087649e+02 
       3.935530397895e-01       1.421833817059e+02 
       4.081961215219e-01       1.325084102009e+02 
       4.237172878699e-01       1.231233776029e+02 
       4.402480685893e-01       1.139546841890e+02 
       4.579562172500e-01       1.052597443855e+02 
       4.770601315923e-01       9.696551323720e+01 
       4.978510870303e-01       8.885829707075e+01 
       5.207288301759e-01       8.101656104969e+01 
       5.462611215506e-01       7.338945403423e+01 
       5.752886308801e-01       6.586348486602e+01 
       6.091213525612e-01       5.840918633565e+01 
       6.499335141576e-01       5.089614971877e+01 
       7.016228001492e-01       4.319493199040e+01 
       7.718166198565e-01       3.512505714165e+01 
       8.764798502278e-01       2.655496138893e+01 
       1.045632284955e+00       1.788823582061e+01 
       1.302692196187e+00       1.082300281441e+01 
       1.639304084332e+00       6.329065085531e+00 
       2.063754223171e+00       3.659811146582e+00 
       2.598112621432e+00       2.096829830109e+00 
       3.270830001820e+00       1.191377631714e+00 
       4.117731006950e+00       6.718333728388e-01 
       5.183916203583e+00       3.762725426716e-01 
       6.526163841302e+00       2.094299846072e-01 
       8.215953501347e+00       1.159058731765e-01 
       1.034327264497e+01       6.381295944974e-02 
