# Matter power spectrum P(k) at redshift z=2.5
# for k=2.10294e-07 to 10.5505 h/Mpc,
# number of wavenumbers equal to 139
#    1:k (h/Mpc)              2:P (Mpc/h)^3        
       2.102943577615e-07       1.482715074944e-01 
       2.647449109429e-07       1.849514339312e-01 
       3.332940960292e-07       2.307053694125e-01 
       4.195924070921e-07       2.877780741109e-01 
       5.282355438841e-07       3.589696246867e-01 
       6.650091496086e-07       4.477727906610e-01 
       8.371969175179e-07       5.585443946432e-01 
       1.053968474139e-06       6.967190648263e-01 
       1.326867695324e-06       8.690758655931e-01 
       1.670427459732e-06       1.084070887553e+00 
       2.102943577615e-06       1.352252114597e+00 
       2.647449109429e-06       1.686776918205e+00 
       3.332940960292e-06       2.104057568136e+00 
       4.195924070921e-06       2.624566424056e+00 
       5.282355438841e-06       3.273840297509e+00 
       6.650091496086e-06       4.083733244224e+00 
       8.371969175179e-06       5.093979210932e+00 
       1.053968474139e-05       6.354141116102e+00 
       1.326867695324e-05       7.926041831208e+00 
       1.670427459732e-05       9.886796035594e+00 
       2.102943577615e-05       1.233259103836e+01 
       2.647449109429e-05       1.538340087966e+01 
       3.332940960292e-05       1.918886253046e+01 
       4.195924070921e-05       2.393559775761e+01 
       5.282355438841e-05       2.985633040904e+01 
       6.650091496086e-05       3.724122785937e+01 
       8.371969175179e-05       4.645198639654e+01 
       1.053968474139e-04       5.793927952843e+01 
       1.326867695324e-04       7.226428399637e+01 
       1.670427459732e-04       9.012506401405e+01 
       2.102943577615e-04       1.123885747431e+02 
       2.647449109429e-04       1.401288354422e+02 
       3.332940960292e-04       1.746712345644e+02 
       4.195924070921e-04       2.176416734657e+02 
       5.282355438841e-04       2.710169880030e+02 
       6.650091496086e-04       3.371696734605e+02 
       8.371969175179e-04       4.188961050636e+02 
       1.053968474139e-03       5.194152137755e+02 
       1.326867695324e-03       6.423237734019e+02 
       1.670427459732e-03       7.914796808233e+02 
       2.102943577615e-03       9.707284893937e+02 
       2.647449109429e-03       1.183356672394e+03 
       3.332940960292e-03       1.431297908139e+03 
       4.195924070921e-03       1.714029199097e+03 
       5.282355438841e-03       2.025932426906e+03 
       6.650091496086e-03       2.358133155148e+03 
       8.371969175179e-03       2.691086009344e+03 
       1.053968474139e-02       2.995297410667e+03 
       1.326867695324e-02       3.228945095386e+03 
       1.670427459725e-02       3.339372302275e+03 
       2.102943543627e-02       3.273201330289e+03 
       2.647427527672e-02       3.002932783137e+03 
       3.330363838756e-02       2.570702272840e+03 
       4.120968254597e-02       2.135945884608e+03 
       4.763330229540e-02       1.888499473716e+03 
       5.234122840545e-02       1.760536947026e+03 
       5.626250252585e-02       1.677436605360e+03 
       5.978218707884e-02       1.613189126916e+03 
       6.307501903602e-02       1.556509047316e+03 
       6.623475941332e-02       1.501562982520e+03 
       6.931818202777e-02       1.445164217024e+03 
       7.236285629671e-02       1.385729226081e+03 
       7.539541577630e-02       1.322808766981e+03 
       7.843582780432e-02       1.256819294074e+03 
       8.149978209383e-02       1.188835806523e+03 
       8.460011366557e-02       1.120391060886e+03 
       8.774769435457e-02       1.053266446873e+03 
       9.095201482253e-02       9.892786294566e+02 
       9.422157762650e-02       9.300752195224e+02 
       9.756417023021e-02       8.769561303211e+02 
       1.009870590475e-01       8.307338881849e+02 
       1.044971299487e-01       7.916395926505e+02 
       1.081009914900e-01       7.592778871074e+02 
       1.118050515693e-01       7.326339674190e+02 
       1.156155747546e-01       7.101420711008e+02 
       1.195387253216e-01       6.898311610457e+02 
       1.235805996055e-01       6.695631927589e+02 
       1.277472503252e-01       6.473604331970e+02 
       1.320447049138e-01       6.217803940595e+02 
       1.364789794666e-01       5.922518229939e+02 
       1.410560896453e-01       5.592581230788e+02 
       1.457820596901e-01       5.242742298295e+02 
       1.506629305766e-01       4.894339300044e+02 
       1.557047682773e-01       4.570038805915e+02 
       1.609136730400e-01       4.288126619703e+02 
       1.662957905693e-01       4.057916135792e+02 
       1.718573259744e-01       3.877354639861e+02 
       1.776045613367e-01       3.733352975355e+02 
       1.835438777429e-01       3.605082897054e+02 
       1.896817826216e-01       3.470112028392e+02 
       1.960249432313e-01       3.312134938531e+02 
       2.025802271564e-01       3.127385802740e+02 
       2.093547507059e-01       2.926190909090e+02 
       2.163559361684e-01       2.728062887349e+02 
       2.235915789777e-01       2.552462937814e+02 
       2.310699259946e-01       2.409910274422e+02 
       2.387997663319e-01       2.297620243860e+02 
       2.467905364609e-01       2.201485836965e+02 
       2.550524417613e-01       2.103779287148e+02 
       2.635965972505e-01       1.993213679960e+02 
       2.724351909905e-01       1.871360551715e+02 
       2.815816746800e-01       1.750426244664e+02 
       2.910509872721e-01       1.643668360822e+02 
       3.008598192307e-01       1.555781425684e+02 
       3.110269273896e-01       1.480335729813e+02 
       3.215735135510e-01       1.405908116237e+02 
       3.325236842559e-01       1.326029646411e+02 
       3.439050150676e-01       1.244137407737e+02 
       3.557492509332e-01       1.168601133690e+02 
       3.680931858092e-01       1.103286376620e+02 
       3.809797814169e-01       1.044020782439e+02 
       3.944596093570e-01       9.845139454034e+01 
       4.085927370577e-01       9.241400421120e+01 
       4.234512330769e-01       8.673353145314e+01 
       4.391225527544e-01       8.160351274124e+01 
       4.557142012574e-01       7.670948515883e+01 
       4.733602936047e-01       7.182956061010e+01 
       4.922310065827e-01       6.715704923922e+01 
       5.125465725660e-01       6.277682350663e+01 
       5.345986537866e-01       5.848953900856e+01 
       5.587841886933e-01       5.429614555881e+01 
       5.856612917444e-01       5.024786550822e+01 
       6.160462563013e-01       4.622939442795e+01 
       6.511919920670e-01       4.224302751046e+01 
       6.931394889551e-01       3.820671334444e+01 
       7.454658549429e-01       3.404840908730e+01 
       8.150027496310e-01       2.964246894097e+01 
       9.158817882339e-01       2.484048986598e+01 
       1.076530385248e+00       1.961609122925e+01 
       1.329827700060e+00       1.460912522620e+01 
       1.672163744943e+00       1.076759594779e+01 
       2.105096805643e+00       7.995451105793e+00 
       2.650159760640e+00       5.946821977966e+00 
       3.336353467940e+00       4.397148838888e+00 
       4.200220163518e+00       3.209592193796e+00 
       5.287763898983e+00       2.298949040068e+00 
       6.656900343997e+00       1.608546902863e+00 
       8.380541006839e+00       1.096117529665e+00 
       1.055047603809e+01       7.263258750146e-01 
