# Matter power spectrum P(k) at redshift z=1.5
# for k=2.09266e-07 to 10.4998 h/Mpc,
# number of wavenumbers equal to 139
#    1:k (h/Mpc)              2:P (Mpc/h)^3        
       2.092664083090e-07       2.571484086838e-01 
       2.634507992551e-07       3.207626855082e-01 
       3.316649059398e-07       4.001140855770e-01 
       4.175413782879e-07       4.990957136251e-01 
       5.256534516022e-07       6.225637641146e-01 
       6.617584880194e-07       7.765757738068e-01 
       8.331045770380e-07       9.686878136269e-01 
       1.048816522715e-06       1.208325200911e+00 
       1.320381772756e-06       1.507244919137e+00 
       1.662262166992e-06       1.880112431831e+00 
       2.092664083090e-06       2.345221188665e+00 
       2.634507992551e-06       2.925390121730e+00 
       3.316649059398e-06       3.649083161495e+00 
       4.175413782879e-06       4.551805685507e+00 
       5.256534516022e-06       5.677846398975e+00 
       6.617584880194e-06       7.082450070567e+00 
       8.331045770381e-06       8.834527655430e+00 
       1.048816522715e-05       1.102003663415e+01 
       1.320381772756e-05       1.374619716035e+01 
       1.662262166992e-05       1.714675033720e+01 
       2.092664083090e-05       2.138851560504e+01 
       2.634507992551e-05       2.667956692889e+01 
       3.316649059398e-05       3.327942496052e+01 
       4.175413782879e-05       4.151175737468e+01 
       5.256534516022e-05       5.178019500552e+01 
       6.617584880194e-05       6.458800920703e+01 
       8.331045770381e-05       8.056255579807e+01 
       1.048816522715e-04       1.004855668515e+02 
       1.320381772756e-04       1.253305457168e+02 
       1.662262166992e-04       1.563086513868e+02 
       2.092664083090e-04       1.949244599335e+02 
       2.634507992551e-04       2.430427031017e+02 
       3.316649059398e-04       3.029662361191e+02 
       4.175413782879e-04       3.775236956390e+02 
       5.256534516022e-04       4.701622145032e+02 
       6.617584880194e-04       5.850362791430e+02 
       8.331045770381e-04       7.270795235667e+02 
       1.048816522715e-03       9.020426817091e+02 
       1.320381772756e-03       1.116469019516e+03 
       1.662262166992e-03       1.377530797792e+03 
       2.092664083090e-03       1.692580337148e+03 
       2.634507992551e-03       2.068329670113e+03 
       3.316649059398e-03       2.509583612675e+03 
       4.175413782879e-03       3.017327570416e+03 
       5.256534516022e-03       3.581368604339e+03 
       6.617584880194e-03       4.192911022591e+03 
       8.331045770381e-03       4.818075542418e+03 
       1.048816522715e-02       5.406155849100e+03 
       1.320381772756e-02       5.882391800630e+03 
       1.662262166972e-02       6.149342439766e+03 
       2.092664006739e-02       6.104237048973e+03 
       2.634468721615e-02       5.687583038911e+03 
       3.312699464404e-02       4.966271669637e+03 
       4.077661339873e-02       4.233431330621e+03 
       4.674734410327e-02       3.815791758865e+03 
       5.118908399794e-02       3.586061260404e+03 
       5.493071926356e-02       3.429927342230e+03 
       5.830947434095e-02       3.305941163879e+03 
       6.148172089679e-02       3.195329991350e+03 
       6.453273185611e-02       3.088096312948e+03 
       6.751474479794e-02       2.978636927230e+03 
       7.046263332127e-02       2.864067239921e+03 
       7.340129439634e-02       2.743458185562e+03 
       7.634950270240e-02       2.617397137219e+03 
       7.932208428677e-02       2.487648791933e+03 
       8.233121976286e-02       2.356824976648e+03 
       8.538726504473e-02       2.228033998834e+03 
       8.849928944431e-02       2.104513168138e+03 
       9.167544036386e-02       1.989265934557e+03 
       9.492319733567e-02       1.884731028285e+03 
       9.824955300969e-02       1.792509522177e+03 
       1.016611444534e-01       1.713168400406e+03 
       1.051643497549e-01       1.646133018013e+03 
       1.087653598297e-01       1.589680732880e+03 
       1.124702321554e-01       1.541055315003e+03 
       1.162849311217e-01       1.496728529907e+03 
       1.202153583622e-01       1.452831337407e+03 
       1.242673755638e-01       1.405744071811e+03 
       1.284468216634e-01       1.352772746443e+03 
       1.327595259618e-01       1.292762575328e+03 
       1.372113184230e-01       1.226453633967e+03 
       1.418080382626e-01       1.156409269967e+03 
       1.465555418169e-01       1.086461628591e+03 
       1.514597106177e-01       1.020785743264e+03 
       1.565264605543e-01       9.628497896811e+02 
       1.617617529753e-01       9.145272085843e+02 
       1.671716085686e-01       8.755933080866e+02 
       1.727621248440e-01       8.437358789260e+02 
       1.785394980363e-01       8.151399320088e+02 
       1.845100502436e-01       7.856173653699e+02 
       1.906802626204e-01       7.520450676463e+02 
       1.970568154607e-01       7.135834301753e+02 
       2.036466360420e-01       6.720293634264e+02 
       2.104569551640e-01       6.309801524421e+02 
       2.174953734170e-01       5.941426104437e+02 
       2.247699383710e-01       5.636245502350e+02 
       2.322892340959e-01       5.390248582114e+02 
       2.400624847408e-01       5.177313802565e+02 
       2.480996743222e-01       4.963490348136e+02 
       2.564116854487e-01       4.726301789703e+02 
       2.650104604706e-01       4.467658289919e+02 
       2.739091895545e-01       4.210507444654e+02 
       2.831225315182e-01       3.980845386352e+02 
       2.926668750318e-01       3.788674477591e+02 
       3.025606501542e-01       3.622092194563e+02 
       3.128247033501e-01       3.458630790993e+02 
       3.234827534544e-01       3.284890705629e+02 
       3.345619519917e-01       3.107081156031e+02 
       3.460935795492e-01       2.941881408978e+02 
       3.581139216317e-01       2.797508994178e+02 
       3.706653843009e-01       2.665864034261e+02 
       3.837979345932e-01       2.533998292564e+02 
       3.975709875365e-01       2.400270218370e+02 
       4.120559176445e-01       2.273750681559e+02 
       4.273394600554e-01       2.158642674821e+02 
       4.435284058357e-01       2.048405207617e+02 
       4.607562246881e-01       1.938212468317e+02 
       4.791926354980e-01       1.832125101152e+02 
       4.990578238374e-01       1.731956707496e+02 
       5.206442427911e-01       1.633302074435e+02 
       5.443512917148e-01       1.536149237280e+02 
       5.707428959805e-01       1.441475247575e+02 
       6.006480527670e-01       1.346545719291e+02 
       6.353471556624e-01       1.251209218287e+02 
       6.769421481766e-01       1.153159486469e+02 
       7.291516812327e-01       1.050102682767e+02 
       7.991512329170e-01       9.379733566818e+01 
       9.018725598906e-01       8.112622980244e+01 
       1.066661260433e+00       6.668083135767e+01 
       1.322885112294e+00       5.206496142164e+01 
       1.664118044707e+00       3.988323720758e+01 
       2.094982734488e+00       3.017646904675e+01 
       2.637426956659e+00       2.240247611528e+01 
       3.320323817475e+00       1.622201805835e+01 
       4.180040029204e+00       1.140813135948e+01 
       5.262358615082e+00       7.772192003834e+00 
       6.624916986501e+00       5.129931757698e+00 
       8.340276345333e+00       3.289241624868e+00 
       1.049978583253e+01       2.057478716063e+00 
