# Matter power spectrum P(k) at redshift z=1.5
# for k=2.10712e-07 to 10.5749 h/Mpc,
# number of wavenumbers equal to 139
#    1:k (h/Mpc)              2:P (Mpc/h)^3        
       2.107120757154e-07       3.269250755587e-01 
       2.652707866900e-07       4.078009493144e-01 
       3.339561343707e-07       5.086841805382e-01 
       4.204258639838e-07       6.345242595465e-01 
       5.292848039447e-07       7.914950983363e-01 
       6.663300897624e-07       9.872979325227e-01 
       8.388598826450e-07       1.231539155284e+00 
       1.056062023196e-06       1.536201620887e+00 
       1.329503317433e-06       1.916232539609e+00 
       1.673745511381e-06       2.390276806820e+00 
       2.107120757154e-06       2.981591739984e+00 
       2.652707866900e-06       3.719188099009e+00 
       3.339561343707e-06       4.639253360656e+00 
       4.204258639838e-06       5.786927052970e+00 
       5.292848039447e-06       7.218515214618e+00 
       6.663300897624e-06       9.004252547803e+00 
       8.388598826450e-06       1.123174762925e+01 
       1.056062023196e-05       1.401027991148e+01 
       1.329503317433e-05       1.747615874906e+01 
       1.673745511381e-05       2.179940620297e+01 
       2.107120757154e-05       2.719208922230e+01 
       2.652707866900e-05       3.391870545270e+01 
       3.339561343707e-05       4.230912329539e+01 
       4.204258639838e-05       5.277469343311e+01 
       5.292848039447e-05       6.582828748357e+01 
       6.663300897624e-05       8.210917827530e+01 
       8.388598826450e-05       1.024138474891e+02 
       1.056062023196e-04       1.277339672327e+02 
       1.329503317433e-04       1.593029017059e+02 
       1.673745511381e-04       1.986520068796e+02 
       2.107120757154e-04       2.476775658673e+02 
       2.652707866900e-04       3.087180186629e+02 
       3.339561343707e-04       3.846386421495e+02 
       4.204258639838e-04       4.789162570289e+02 
       5.292848039447e-04       5.957094207884e+02 
       6.663300897624e-04       7.398910558815e+02 
       8.388598826450e-04       9.170150299860e+02 
       1.056062023196e-03       1.133189999834e+03 
       1.329503317433e-03       1.394823268323e+03 
       1.673745511381e-03       1.708110682932e+03 
       2.107120757154e-03       2.078039834981e+03 
       2.652707866900e-03       2.506888724462e+03 
       3.339561343707e-03       2.992350197691e+03 
       4.204258639838e-03       3.525255962280e+03 
       5.292848039447e-03       4.087016884144e+03 
       6.663300897624e-03       4.647235943613e+03 
       8.388598826450e-03       5.162106886060e+03 
       1.056062023197e-02       5.573868474538e+03 
       1.329503317433e-02       5.812573921618e+03 
       1.673745511381e-02       5.802784015802e+03 
       2.107120755737e-02       5.481403382776e+03 
       2.652705855080e-02       4.835383223555e+03 
       3.339098475469e-02       3.956706942562e+03 
       4.180303202846e-02       3.082355669606e+03 
       4.991206884035e-02       2.535689042684e+03 
       5.572198470393e-02       2.286128188397e+03 
       6.033363837098e-02       2.140239449278e+03 
       6.436881608609e-02       2.032408102913e+03 
       6.808916110456e-02       1.938832419501e+03 
       7.162640094288e-02       1.848912077418e+03 
       7.505675413955e-02       1.757692732804e+03 
       7.842897328854e-02       1.663273461634e+03 
       8.177670710649e-02       1.565671767728e+03 
       8.512463316371e-02       1.466177982836e+03 
       8.849178447442e-02       1.366882934341e+03 
       9.189348343949e-02       1.270272842933e+03 
       9.534252988152e-02       1.178866271587e+03 
       9.884996422742e-02       1.094900172171e+03 
       1.024255761080e-01       1.020080891410e+03 
       1.060782537434e-01       9.554113160342e+02 
       1.098162300404e-01       9.010952221798e+02 
       1.136472595073e-01       8.565122435265e+02 
       1.175787475118e-01       8.202570002866e+02 
       1.216178458822e-01       7.902449102008e+02 
       1.257715242247e-01       7.639008586322e+02 
       1.300466233965e-01       7.384496771365e+02 
       1.344498956894e-01       7.113086625260e+02 
       1.389880350403e-01       6.805377146074e+02 
       1.436676997629e-01       6.452461781826e+02 
       1.484955297507e-01       6.058217402451e+02 
       1.534781597382e-01       5.638668517560e+02 
       1.586222299654e-01       5.218147458727e+02 
       1.639343954353e-01       4.823151858201e+02 
       1.694213348541e-01       4.475688358682e+02 
       1.750897602799e-01       4.187971552192e+02 
       1.809464284668e-01       3.959703472946e+02 
       1.869981548659e-01       3.778375110573e+02 
       1.932518312299e-01       3.622615652636e+02 
       1.997144477554e-01       3.468323769890e+02 
       2.063931206914e-01       3.296435602181e+02 
       2.132951263438e-01       3.099689189389e+02 
       2.204279424128e-01       2.885000319940e+02 
       2.277992976318e-01       2.669623988908e+02 
       2.354172307279e-01       2.472706697422e+02 
       2.432901598130e-01       2.306530598946e+02 
       2.514269634604e-01       2.171621146123e+02 
       2.598370749262e-01       2.057623496734e+02 
       2.685305912795e-01       1.949351179011e+02 
       2.775183996108e-01       1.835179560145e+02 
       2.868123230541e-01       1.713133517401e+02 
       2.964252901012e-01       1.590598609649e+02 
       3.063715316782e-01       1.477868458150e+02 
       3.166668117678e-01       1.380503293399e+02 
       3.273286990912e-01       1.296086579283e+02 
       3.383768896713e-01       1.217263226050e+02 
       3.498335931834e-01       1.138199215398e+02 
       3.617240001723e-01       1.058894140150e+02 
       3.740768529112e-01       9.836499169182e+01 
       3.869251505754e-01       9.157765125219e+01 
       4.003070304800e-01       8.543187073916e+01 
       4.142668829336e-01       7.958986069315e+01 
       4.288567801638e-01       7.388543488911e+01 
       4.441383335849e-01       6.844375255640e+01 
       4.601851445759e-01       6.340674408547e+01 
       4.770860922306e-01       5.870856765363e+01 
       4.949498248401e-01       5.421105592452e+01 
       5.139110212077e-01       4.991074949929e+01 
       5.341393197037e-01       4.586069536363e+01 
       5.558523836146e-01       4.202026073350e+01 
       5.793355895315e-01       3.833637540419e+01 
       6.049727194795e-01       3.481512381428e+01 
       6.332957311240e-01       3.143316416006e+01 
       6.650692818012e-01       2.815644375922e+01 
       7.014423069500e-01       2.496474151965e+01 
       7.442378461432e-01       2.181931907839e+01 
       7.965498384149e-01       1.867838719552e+01 
       8.640735260894e-01       1.548521380755e+01 
       9.582490589685e-01       1.217648403549e+01 
       1.103019133654e+00       8.749664054598e+00 
       1.337597842494e+00       5.529344589606e+00 
       1.676207338975e+00       3.205176594859e+00 
       2.109980225254e+00       1.822757841407e+00 
       2.656306175247e+00       1.028470522968e+00 
       3.344091343937e+00       5.763245693577e-01 
       4.209961572243e+00       3.209404874945e-01 
       5.300027605974e+00       1.777048924916e-01 
       6.672339436371e+00       9.788153927600e-02 
       8.399977672564e+00       5.365533637121e-02 
       1.057494535049e+01       2.928177927766e-02 
