# Matter power spectrum P(k) at redshift z=1
# for k=2.10642e-07 to 10.5711 h/Mpc,
# number of wavenumbers equal to 139
#    1:k (h/Mpc)              2:P (Mpc/h)^3        
       2.106419072884e-07       3.635565408000e-01 
       2.651824498742e-07       4.534944351045e-01 
       3.338449249084e-07       5.656814813834e-01 
       4.202858595657e-07       7.056217527858e-01 
       5.291085488251e-07       8.801809389701e-01 
       6.661081977134e-07       1.097923187391e+00 
       8.385805371058e-07       1.369531273089e+00 
       1.055710347999e-06       1.708330711066e+00 
       1.329060584589e-06       2.130943523741e+00 
       1.673188143754e-06       2.658103738385e+00 
       2.106419072884e-06       3.315674618413e+00 
       2.651824498742e-06       4.135917533507e+00 
       3.338449249084e-06       5.159074706553e+00 
       4.202858595657e-06       6.435343471114e+00 
       5.291085488251e-06       8.027338850140e+00 
       6.661081977134e-06       1.001316519377e+01 
       8.385805371058e-06       1.249024740043e+01 
       1.055710347999e-05       1.558010934802e+01 
       1.329060584589e-05       1.943433330013e+01 
       1.673188143754e-05       2.424199135016e+01 
       2.106419072884e-05       3.023891087587e+01 
       2.651824498742e-05       3.771922341085e+01 
       3.338449249084e-05       4.704975333413e+01 
       4.202858595657e-05       5.868793213086e+01 
       5.291085488251e-05       7.320407738565e+01 
       6.661081977134e-05       9.130905112200e+01 
       8.385805371058e-05       1.138885005198e+02 
       1.055710347999e-04       1.420450589586e+02 
       1.329060584589e-04       1.771499895320e+02 
       1.673188143754e-04       2.209056672072e+02 
       2.106419072884e-04       2.754197950255e+02 
       2.651824498742e-04       3.432909419484e+02 
       3.338449249084e-04       4.277022800904e+02 
       4.202858595657e-04       5.325156132647e+02 
       5.291085488251e-04       6.623507711045e+02 
       6.661081977134e-04       8.226278915342e+02 
       8.385805371058e-04       1.019546065206e+03 
       1.055710347999e-03       1.259969252145e+03 
       1.329060584589e-03       1.551156059162e+03 
       1.673188143754e-03       1.900163489294e+03 
       2.106419072884e-03       2.312738846082e+03 
       2.651824498742e-03       2.791732292336e+03 
       3.338449249084e-03       3.334973096908e+03 
       4.202858595657e-03       3.932734231267e+03 
       5.291085488251e-03       4.564806653239e+03 
       6.661081977134e-03       5.193474287997e+03 
       8.385805371058e-03       5.776888534362e+03 
       1.055710347999e-02       6.247216263354e+03 
       1.329060584589e-02       6.525328506451e+03 
       1.673188143753e-02       6.525256113099e+03 
       2.106419071104e-02       6.174518270025e+03 
       2.651822111093e-02       5.457307271478e+03 
       3.337924879277e-02       4.477378585918e+03 
       4.176767421019e-02       3.504213176287e+03 
       4.976019741109e-02       2.901852610062e+03 
       5.548147324309e-02       2.625644576019e+03 
       6.003940224406e-02       2.462956193012e+03 
       6.403536159861e-02       2.342271362677e+03 
       6.772359037607e-02       2.237373205625e+03 
       7.123268215492e-02       2.136493042035e+03 
       7.463728763194e-02       2.034091909087e+03 
       7.798527294727e-02       1.928021576957e+03 
       8.130973785383e-02       1.818276469454e+03 
       8.463499502449e-02       1.706281786112e+03 
       8.797982058147e-02       1.594370666175e+03 
       9.135934710312e-02       1.485333431090e+03 
       9.478622813640e-02       1.382011293750e+03 
       9.827138712309e-02       1.286942293296e+03 
       1.018245169687e-01       1.202078142910e+03 
       1.054544234917e-01       1.128585354918e+03 
       1.091692674941e-01       1.066733074657e+03 
       1.129767388715e-01       1.015860875577e+03 
       1.168841838720e-01       9.744195891450e+02 
       1.208986992476e-01       9.400878679873e+02 
       1.250272025019e-01       9.099814281819e+02 
       1.292764845675e-01       8.809765781576e+02 
       1.336532493930e-01       8.501490045156e+02 
       1.381641437035e-01       8.152799482958e+02 
       1.428157793974e-01       7.753188793230e+02 
       1.476147504994e-01       7.306514943418e+02 
       1.525676462406e-01       6.830418824152e+02 
       1.576810615938e-01       6.352121108827e+02 
       1.629616064450e-01       5.901557604940e+02 
       1.684159144776e-01       5.503848001034e+02 
       1.740506527898e-01       5.173226083367e+02 
       1.798725332222e-01       4.909851359917e+02 
       1.858883263514e-01       4.700028117023e+02 
       1.921048790889e-01       4.519868456728e+02 
       1.985291368126e-01       4.342117146287e+02 
       2.051681709529e-01       4.144902486084e+02 
       2.120292129575e-01       3.919494744142e+02 
       2.191196955655e-01       3.673229626648e+02 
       2.264473023539e-01       3.425401903374e+02 
       2.340200265706e-01       3.197799847485e+02 
       2.418462403614e-01       3.004707995140e+02 
       2.499347756381e-01       2.847170089748e+02 
       2.582950180482e-01       2.713760981966e+02 
       2.669370158040e-01       2.587276773177e+02 
       2.758716055431e-01       2.454243791961e+02 
       2.851105579522e-01       2.312026087062e+02 
       2.946667466343e-01       2.168784565664e+02 
       3.045543446913e-01       2.036293150204e+02 
       3.147890548075e-01       1.921158825028e+02 
       3.253883803519e-01       1.820894427254e+02 
       3.363719473312e-01       1.727169968909e+02 
       3.477618901084e-01       1.633154389325e+02 
       3.595833179887e-01       1.538631717800e+02 
       3.718648854785e-01       1.448472283160e+02 
       3.846394969437e-01       1.366597776388e+02 
       3.979451875000e-01       1.292056027413e+02 
       4.118262378272e-01       1.220967343900e+02 
       4.263346035909e-01       1.151306569197e+02 
       4.415317741199e-01       1.084451375556e+02 
       4.574912261414e-01       1.022089262426e+02 
       4.743017171134e-01       9.635142940290e+01 
       4.920717867772e-01       9.070928588730e+01 
       5.109360363217e-01       8.527262228478e+01 
       5.310640890263e-01       8.010279729637e+01 
       5.526737120536e-01       7.515237670436e+01 
       5.760506075919e-01       7.035434381334e+01 
       6.015792971468e-01       6.571062787003e+01 
       6.297932639734e-01       6.118830994321e+01 
       6.614602304466e-01       5.673731843053e+01 
       6.977353442745e-01       5.231988691721e+01 
       7.404546552721e-01       4.786830565273e+01 
       7.927407734663e-01       4.329742255304e+01 
       8.603559654356e-01       3.847871360066e+01 
       9.549013116634e-01       3.322834417415e+01 
       1.100631947536e+00       2.736909045503e+01 
       1.336606228566e+00       2.117981740912e+01 
       1.675580200978e+00       1.584639897953e+01 
       2.109219399407e+00       1.181919034026e+01 
       2.655348600741e+00       8.768480782502e+00 
       3.342885829388e+00       6.426552423399e+00 
       4.208443919342e+00       4.625648936607e+00 
       5.298116994171e+00       3.254702856944e+00 
       6.669934118620e+00       2.231658243530e+00 
       8.396949556924e+00       1.488561978887e+00 
       1.057113317877e+01       9.656667357838e-01 
