# Matter power spectrum P(k) at redshift z=1.5
# for k=2.09745e-07 to 10.5228 h/Mpc,
# number of wavenumbers equal to 139
#    1:k (h/Mpc)              2:P (Mpc/h)^3        
       2.097445527274e-07       2.219844015565e-01 
       2.640527474140e-07       2.781841989757e-01 
       3.324227137735e-07       3.486121006314e-01 
       4.184954018270e-07       4.368702359933e-01 
       5.268544960791e-07       5.474726854895e-01 
       6.632705134320e-07       6.860763593569e-01 
       8.350081042533e-07       8.597703271865e-01 
       1.051212921499e-06       1.077438397504e+00 
       1.323398660081e-06       1.350213490565e+00 
       1.666060203110e-06       1.692047044314e+00 
       2.097445527274e-06       2.120422573752e+00 
       2.640527474140e-06       2.657249878368e+00 
       3.324227137735e-06       3.329985627650e+00 
       4.184954018270e-06       4.173037629066e+00 
       5.268544960791e-06       5.229524579085e+00 
       6.632705134320e-06       6.553481265911e+00 
       8.350081042533e-06       8.212621930976e+00 
       1.051212921499e-05       1.029180296449e+01 
       1.323398660081e-05       1.289736173739e+01 
       1.666060203110e-05       1.616255285364e+01 
       2.097445527274e-05       2.025435863894e+01 
       2.640527474140e-05       2.538201976854e+01 
       3.324227137735e-05       3.180771747483e+01 
       4.184954018270e-05       3.985994408882e+01 
       5.268544960791e-05       4.995022668457e+01 
       6.632705134320e-05       6.259402142722e+01 
       8.350081042533e-05       7.843677257201e+01 
       1.051212921499e-04       9.828632159562e+01 
       1.323398660081e-04       1.231530346249e+02 
       1.666060203110e-04       1.542991354926e+02 
       2.097445527274e-04       1.932986759235e+02 
       2.640527474140e-04       2.421091348281e+02 
       3.324227137735e-04       3.031544648189e+02 
       4.184954018270e-04       3.794170038433e+02 
       5.268544960791e-04       4.745316032952e+02 
       6.632705134320e-04       5.928698338002e+02 
       8.350081042533e-04       7.395970087848e+02 
       1.051212921499e-03       9.206814925181e+02 
       1.323398660081e-03       1.142823149901e+03 
       1.666060203110e-03       1.413210030309e+03 
       2.097445527274e-03       1.738932743573e+03 
       2.640527474140e-03       2.125966526918e+03 
       3.324227137735e-03       2.577684539271e+03 
       4.184954018270e-03       3.092758418606e+03 
       5.268544960791e-03       3.662281093224e+03 
       6.632705134320e-03       4.266239679647e+03 
       8.350081042533e-03       4.869576385118e+03 
       1.051212921499e-02       5.418160389692e+03 
       1.323398660081e-02       5.836301719290e+03 
       1.666060203106e-02       6.029947906527e+03 
       2.097445502568e-02       5.904998172084e+03 
       2.640510457044e-02       5.414279822034e+03 
       3.322055989118e-02       4.633850254716e+03 
       4.117844974697e-02       3.843459783188e+03 
       4.775263587697e-02       3.387769330515e+03 
       5.254643383901e-02       3.154056365228e+03 
       5.652126060104e-02       3.002364231829e+03 
       6.008048563100e-02       2.884388638348e+03 
       6.340565125569e-02       2.779567921587e+03 
       6.659355920853e-02       2.677484860263e+03 
       6.970256070747e-02       2.572604872678e+03 
       7.277113769542e-02       2.462325072904e+03 
       7.582649683021e-02       2.346090243512e+03 
       7.888898942741e-02       2.224878169591e+03 
       8.197457647302e-02       2.100799029730e+03 
       8.509629346471e-02       1.976713835622e+03 
       8.826516634501e-02       1.855845729066e+03 
       9.149080848110e-02       1.741393947810e+03 
       9.478182329592e-02       1.636174750722e+03 
       9.814608360861e-02       1.542316599374e+03 
       1.015909299951e-01       1.461030064277e+03 
       1.051233143163e-01       1.392462161374e+03 
       1.087499051085e-01       1.335639558531e+03 
       1.124771658143e-01       1.288508330324e+03 
       1.163114132740e-01       1.248088442420e+03 
       1.202588616325e-01       1.210772184757e+03 
       1.243256553433e-01       1.172786445727e+03 
       1.285178939827e-01       1.130798453634e+03 
       1.328416509456e-01       1.082572151028e+03 
       1.373029876619e-01       1.027508824984e+03 
       1.419079646910e-01       9.668750827359e+02 
       1.466626508628e-01       9.035781583562e+02 
       1.515731315126e-01       8.414891177422e+02 
       1.566455167802e-01       7.844821175532e+02 
       1.618859508943e-01       7.354608899023e+02 
       1.673006233353e-01       6.956318891996e+02 
       1.728957827476e-01       6.641903968633e+02 
       1.786777544612e-01       6.384978826135e+02 
       1.846529624746e-01       6.147793358163e+02 
       1.908279567449e-01       5.892781413701e+02 
       1.972094466371e-01       5.595826231791e+02 
       2.038043413954e-01       5.255762716964e+02 
       2.106197985366e-01       4.894538426064e+02 
       2.176632811217e-01       4.546710770679e+02 
       2.249426249631e-01       4.243184143706e+02 
       2.324661169739e-01       3.997324775288e+02 
       2.402425860867e-01       3.799818401945e+02 
       2.482815084742e-01       3.624421746488e+02 
       2.565931292317e-01       3.442457719130e+02 
       2.651886032470e-01       3.239111053223e+02 
       2.740801587438e-01       3.021273135588e+02 
       2.832812879898e-01       2.810652754990e+02 
       2.928069709874e-01       2.626976634527e+02 
       3.026739397243e-01       2.474058657031e+02 
       3.129009929095e-01       2.338794928642e+02 
       3.235093742628e-01       2.203314839860e+02 
       3.345232317057e-01       2.060285446929e+02 
       3.459701806643e-01       1.917546144530e+02 
       3.578820028616e-01       1.787717311820e+02 
       3.702955235028e-01       1.674284474525e+02 
       3.832537262956e-01       1.569244455314e+02 
       3.968071898753e-01       1.464007529195e+02 
       4.110159650817e-01       1.359485133475e+02 
       4.259520669578e-01       1.262303207395e+02 
       4.417028397745e-01       1.173765143976e+02 
       4.583755876104e-01       1.088797528626e+02 
       4.761040823118e-01       1.005252045788e+02 
       4.950579299809e-01       9.261188646223e+01 
       5.154564207369e-01       8.516973525298e+01 
       5.375896520607e-01       7.792845998812e+01 
       5.618519210838e-01       7.093077520614e+01 
       5.887967649426e-01       6.420020601583e+01 
       6.192322489215e-01       5.759270153183e+01 
       6.543957664346e-01       5.110772445591e+01 
       6.962972352294e-01       4.463438850066e+01 
       7.484469786908e-01       3.808272070186e+01 
       8.175229709729e-01       3.130880124743e+01 
       9.173033830784e-01       2.417995582510e+01 
       1.075703958606e+00       1.683011075378e+01 
       1.326611399180e+00       1.036079403779e+01 
       1.667786008087e+00       6.041905260976e+00 
       2.099577523775e+00       3.479711535509e+00 
       2.643211360779e+00       1.987291362700e+00 
       3.327605950763e+00       1.126397642236e+00 
       4.189207691853e+00       6.340711348473e-01 
       5.273900018557e+00       3.547048645497e-01 
       6.639446752624e+00       1.972944735688e-01 
       8.358568237132e+00       1.091663157225e-01 
       1.052281395994e+01       6.011328699694e-02 
