# Matter power spectrum P(k) at redshift z=1.5
# for k=2.10784e-07 to 10.5788 h/Mpc,
# number of wavenumbers equal to 139
#    1:k (h/Mpc)              2:P (Mpc/h)^3        
       2.107843479881e-07       2.135044475794e-01 
       2.653617720907e-07       2.677792531957e-01 
       3.340706782038e-07       3.358512162679e-01 
       4.205700661260e-07       4.212277017462e-01 
       5.294663436860e-07       5.283076789428e-01 
       6.665586347561e-07       6.626083753681e-01 
       8.391476037453e-07       8.310495480879e-01 
       1.056424242601e-06       1.042310018867e+00 
       1.329959324646e-06       1.307274842948e+00 
       1.674319590449e-06       1.639596151381e+00 
       2.107843479881e-06       2.056396560782e+00 
       2.653617720907e-06       2.579151390301e+00 
       3.340706782038e-06       3.234795135140e+00 
       4.205700661260e-06       4.057109190679e+00 
       5.294663436860e-06       5.088462302060e+00 
       6.665586347561e-06       6.381993355572e+00 
       8.391476037453e-06       8.004348869201e+00 
       1.056424242601e-05       1.003911599735e+01 
       1.329959324646e-05       1.259112750105e+01 
       1.674319590449e-05       1.579185957972e+01 
       2.107843479881e-05       1.980619894827e+01 
       2.653617720907e-05       2.484092429240e+01 
       3.340706782038e-05       3.115533214349e+01 
       4.205700661260e-05       3.907454081121e+01 
       5.294663436860e-05       4.900613040586e+01 
       6.665586347561e-05       6.146092179964e+01 
       8.391476037453e-05       7.707885754419e+01 
       1.056424242601e-04       9.666110560923e+01 
       1.329959324646e-04       1.212096226248e+02 
       1.674319590449e-04       1.519754006460e+02 
       2.107843479881e-04       1.905163120452e+02 
       2.653617720907e-04       2.387645550661e+02 
       3.340706782038e-04       2.991016899067e+02 
       4.205700661260e-04       3.744354863375e+02 
       5.294663436860e-04       4.682668258834e+02 
       6.665586347561e-04       5.847275586256e+02 
       8.391476037453e-04       7.285651442480e+02 
       1.056424242601e-03       9.050507156084e+02 
       1.329959324646e-03       1.119778112424e+03 
       1.674319590449e-03       1.378248974459e+03 
       2.107843479881e-03       1.685045182127e+03 
       2.653617720907e-03       2.042564184300e+03 
       3.340706782038e-03       2.449418537844e+03 
       4.205700661260e-03       2.898473798732e+03 
       5.294663436860e-03       3.374623584839e+03 
       6.665586347561e-03       3.852685668814e+03 
       8.391476037453e-03       4.295950234637e+03 
       1.056424242601e-02       4.655611471500e+03 
       1.329959324646e-02       4.872136374129e+03 
       1.674319590449e-02       4.880738972206e+03 
       2.107843478765e-02       4.626207523121e+03 
       2.653616038433e-02       4.094658044925e+03 
       3.340300481710e-02       3.360647872565e+03 
       4.183797170831e-02       2.622077033512e+03 
       5.006650293256e-02       2.154320228872e+03 
       5.597040426525e-02       1.942067439137e+03 
       6.063869917732e-02       1.819238357442e+03 
       6.471504000273e-02       1.728785960350e+03 
       6.846900622949e-02       1.650214516721e+03 
       7.203566598958e-02       1.574465984126e+03 
       7.549290207751e-02       1.497345211094e+03 
       7.889040517045e-02       1.417279376349e+03 
       8.226240356224e-02       1.334340193108e+03 
       8.563395934881e-02       1.249687258324e+03 
       8.902437583334e-02       1.165159903658e+03 
       9.244917487084e-02       1.082926861407e+03 
       9.592130979977e-02       1.005172860838e+03 
       9.945194369251e-02       9.338285999205e+02 
       1.030509674881e-01       8.703579382695e+02 
       1.067273556383e-01       8.156113199052e+02 
       1.104894164475e-01       7.697459861662e+02 
       1.143449719414e-01       7.322068103583e+02 
       1.183014892277e-01       7.017620513391e+02 
       1.223661776236e-01       6.765966969337e+02 
       1.265460610959e-01       6.544778941154e+02 
       1.308480325714e-01       6.330089772504e+02 
       1.352788947483e-01       6.099716790435e+02 
       1.398453907776e-01       5.837161517245e+02 
       1.445542273486e-01       5.535100138603e+02 
       1.494120921542e-01       5.197290909768e+02 
       1.544256673429e-01       4.837924474358e+02 
       1.596016403184e-01       4.478210996710e+02 
       1.649467130893e-01       4.141023365193e+02 
       1.704676112674e-01       3.845160240142e+02 
       1.761710937500e-01       3.600835682540e+02 
       1.820639640811e-01       3.407422708836e+02 
       1.881530844608e-01       3.253811637999e+02 
       1.944453933551e-01       3.121393937475e+02 
       2.009479276494e-01       2.989427696430e+02 
       2.076678502796e-01       2.841752908260e+02 
       2.146124842770e-01       2.672534177417e+02 
       2.217893541708e-01       2.488124792880e+02 
       2.292062357226e-01       2.303573292804e+02 
       2.368712150169e-01       2.135270384715e+02 
       2.447927580232e-01       1.993482293496e+02 
       2.529797918867e-01       1.878309131680e+02 
       2.614417994120e-01       1.780623802511e+02 
       2.701889285026e-01       1.687397237473e+02 
       2.792321187320e-01       1.588900704001e+02 
       2.885832477776e-01       1.483762516719e+02 
       2.982553011981e-01       1.378490824150e+02 
       3.082625700235e-01       1.281830591848e+02 
       3.186208819357e-01       1.198306415428e+02 
       3.293478735513e-01       1.125651544842e+02 
       3.404633136189e-01       1.057568880405e+02 
       3.519894900257e-01       9.892425015086e+01 
       3.639516776694e-01       9.208432386228e+01 
       3.763787099405e-01       8.560517282613e+01 
       3.893036844325e-01       7.975593133246e+01 
       4.027648445420e-01       7.444464518681e+01 
       4.168066943675e-01       6.938705725256e+01 
       4.314814271285e-01       6.445218332939e+01 
       4.468507809847e-01       5.974905511812e+01 
       4.629884867728e-01       5.539139162748e+01 
       4.799835500128e-01       5.131918103603e+01 
       4.979447320313e-01       4.741917951370e+01 
       5.170067929223e-01       4.369135173885e+01 
       5.373393881385e-01       4.017753159308e+01 
       5.591600758789e-01       3.684185419405e+01 
       5.827539000556e-01       3.364135726379e+01 
       6.085038854917e-01       3.058035580838e+01 
       6.369404271620e-01       2.763798587391e+01 
       6.688250443833e-01       2.478574498327e+01 
       7.053003191757e-01       2.200539955783e+01 
       7.481760056503e-01       1.926359486169e+01 
       8.005168203822e-01       1.652369743189e+01 
       8.679498118785e-01       1.373595910604e+01 
       9.617512937894e-01       1.084387018529e+01 
       1.105540810562e+00       7.839119700329e+00 
       1.338654482227e+00       4.991370211494e+00 
       1.676848776299e+00       2.910007722660e+00 
       2.110754273779e+00       1.663149296601e+00 
       2.657280340038e+00       9.431028103535e-01 
       3.345317744321e+00       5.311509339739e-01 
       4.211505518851e+00       2.972866529395e-01 
       5.301971319593e+00       1.654494921733e-01 
       6.674786426839e+00       9.159986122745e-02 
       8.403058251047e+00       5.047153246136e-02 
       1.057882356903e+01       2.768731941261e-02 
