# Matter power spectrum P(k) at redshift z=0
# for k=2.09961e-07 to 10.5339 h/Mpc,
# number of wavenumbers equal to 139
#    1:k (h/Mpc)              2:P (Mpc/h)^3        
       2.099607480503e-07       1.125707838013e+00 
       2.643249211999e-07       1.404189397981e+00 
       3.327653602690e-07       1.751562704001e+00 
       4.189267682075e-07       2.184870437387e+00 
       5.273975541772e-07       2.725371356968e+00 
       6.639541830718e-07       3.399583286246e+00 
       8.358687933361e-07       4.240584117635e+00 
       1.052296464857e-06       5.289634661923e+00 
       1.324762760349e-06       6.598202960464e+00 
       1.667777503602e-06       8.230489373046e+00 
       2.099607480503e-06       1.026657631641e+01 
       2.643249211999e-06       1.280635717139e+01 
       3.327653602690e-06       1.597443708658e+01 
       4.189267682075e-06       1.992624605833e+01 
       5.273975541772e-06       2.485566408713e+01 
       6.639541830718e-06       3.100453227954e+01 
       8.358687933361e-06       3.867451606328e+01 
       1.052296464857e-05       4.824190162833e+01 
       1.324762760349e-05       6.017604973215e+01 
       1.667777503602e-05       7.506240866139e+01 
       2.099607480503e-05       9.363120837521e+01 
       2.643249211999e-05       1.167932296671e+02 
       3.327653602690e-05       1.456843757600e+02 
       4.189267682075e-05       1.817211788441e+02 
       5.273975541772e-05       2.266698579323e+02 
       6.639541830718e-05       2.827321058273e+02 
       8.358687933361e-05       3.526514018269e+02 
       1.052296464857e-04       4.398442610806e+02 
       1.324762760349e-04       5.485613004950e+02 
       1.667777503602e-04       6.840830371123e+02 
       2.099607480503e-04       8.529544122647e+02 
       2.643249211999e-04       1.063259304223e+03 
       3.327653602690e-04       1.324930646938e+03 
       4.189267682075e-04       1.650082402921e+03 
       5.273975541772e-04       2.053337266142e+03 
       6.639541830718e-04       2.552110725554e+03 
       8.358687933361e-04       3.166790948240e+03 
       1.052296464857e-03       3.920682470919e+03 
       1.324762760349e-03       4.839423087893e+03 
       1.667777503602e-03       5.949518243654e+03 
       2.099607480503e-03       7.275707645247e+03 
       2.643249211999e-03       8.836607120043e+03 
       3.327653602690e-03       1.063835296093e+04 
       4.189267682075e-03       1.266625054797e+04 
       5.273975541772e-03       1.487380647661e+04 
       6.639541830718e-03       1.717012155898e+04 
       8.358687933361e-03       1.940702124461e+04 
       1.052296464857e-02       2.136731018206e+04 
       1.324762760349e-02       2.276039874623e+04 
       1.667777503600e-02       2.324012196092e+04 
       2.099607466661e-02       2.247802465642e+04 
       2.643238152337e-02       2.033831056187e+04 
       3.326061272664e-02       1.714939475151e+04 
       4.134369471730e-02       1.396486624125e+04 
       4.823447665123e-02       1.211198092690e+04 
       5.321887612962e-02       1.118945965402e+04 
       5.731699469665e-02       1.060287856140e+04 
       6.097026855181e-02       1.015157168806e+04 
       6.437444964952e-02       9.753176054626e+03 
       6.763271652548e-02       9.367198419810e+03 
       7.080675185195e-02       8.972761545628e+03 
       7.393698215320e-02       8.560467324918e+03 
       7.705184813701e-02       8.128723200408e+03 
       8.017253764536e-02       7.681607778358e+03 
       8.331561030801e-02       7.227236383672e+03 
       8.649455025392e-02       6.776249243935e+03 
       8.972073346260e-02       6.340324514277e+03 
       9.300405637768e-02       5.930752981576e+03 
       9.635335882910e-02       5.557162322066e+03 
       9.977671685408e-02       5.226481313102e+03 
       1.032816502843e-01       4.942203028580e+03 
       1.068752727509e-01       4.703965983772e+03 
       1.105644017185e-01       4.507455162018e+03 
       1.143556401045e-01       4.344641017414e+03 
       1.182554372770e-01       4.204423506928e+03 
       1.222701348330e-01       4.073779236126e+03 
       1.264060010078e-01       3.939470441315e+03 
       1.306692565461e-01       3.790210976289e+03 
       1.350660941859e-01       3.618923452405e+03 
       1.396026934579e-01       3.424473412897e+03 
       1.442852322006e-01       3.212207098334e+03 
       1.491198959959e-01       2.992874608717e+03 
       1.541128865995e-01       2.780051992117e+03 
       1.592704303612e-01       2.586741694037e+03 
       1.645987875772e-01       2.422121225634e+03 
       1.701042636859e-01       2.289288296651e+03 
       1.757932231969e-01       2.184489675234e+03 
       1.816721072310e-01       2.098029004818e+03 
       1.877474555395e-01       2.016891196453e+03 
       1.940259338663e-01       1.928780803836e+03 
       2.005143675184e-01       1.826485837231e+03 
       2.072197820264e-01       1.710672251265e+03 
       2.141494518043e-01       1.589390118294e+03 
       2.213109577823e-01       1.474172138969e+03 
       2.287122550759e-01       1.374616786807e+03 
       2.363617519112e-01       1.294155363206e+03 
       2.442684012368e-01       1.228890373401e+03 
       2.524418067635e-01       1.169950310428e+03 
       2.608923455915e-01       1.108405075751e+03 
       2.696313101535e-01       1.040289925209e+03 
       2.786710729578e-01       9.685091146357e+02 
       2.880252786169e-01       9.000743731157e+02 
       2.977090689727e-01       8.407078518137e+02 
       3.077393488829e-01       7.909022182971e+02 
       3.181351025679e-01       7.462100411629e+02 
       3.289177735555e-01       7.013233127361e+02 
       3.401117255087e-01       6.545269531472e+02 
       3.517448070533e-01       6.085029821549e+02 
       3.638490518296e-01       5.668455490082e+02 
       3.764615564162e-01       5.301588464042e+02 
       3.896255951552e-01       4.959008960810e+02 
       4.033920547634e-01       4.617765703233e+02 
       4.178213070366e-01       4.282926394415e+02 
       4.329856916001e-01       3.972630563272e+02 
       4.489728637259e-01       3.688154890383e+02 
       4.658903940334e-01       3.415065849529e+02 
       4.838722217256e-01       3.148852160667e+02 
       5.030879239125e-01       2.897450661429e+02 
       5.237563907093e-01       2.660399593231e+02 
       5.461666279075e-01       2.430712746127e+02 
       5.707105429856e-01       2.209661794071e+02 
       5.979367950995e-01       1.997124773097e+02 
       6.286436344163e-01       1.789378968667e+02 
       6.640483744293e-01       1.585992798133e+02 
       7.061182280220e-01       1.383811492100e+02 
       7.582675630483e-01       1.180051621633e+02 
       8.269463387786e-01       9.704945910940e+01 
       9.253958459741e-01       7.510618899463e+01 
       1.080736814400e+00       5.249543964058e+01 
       1.328600394207e+00       3.234288878559e+01 
       1.669561071230e+00       1.875021547642e+01 
       2.101792545242e+00       1.072683690090e+01 
       2.645999810116e+00       6.086394269205e+00 
       3.331116400426e+00       3.427973821249e+00 
       4.193627086141e+00       1.917775117710e+00 
       5.279463706331e+00       1.066349827055e+00 
       6.646451020545e+00       5.896191121436e-01 
       8.367386088010e+00       3.243500548843e-01 
       1.053391497649e+01       1.775834613050e-01 
