# Matter power spectrum P(k) at redshift z=1
# for k=2.0949e-07 to 10.5103 h/Mpc,
# number of wavenumbers equal to 139
#    1:k (h/Mpc)              2:P (Mpc/h)^3        
       2.094896644173e-07       4.678702153439e-01 
       2.637318620431e-07       5.826870935146e-01 
       3.320187430259e-07       7.256804081870e-01 
       4.179868327872e-07       9.037647486163e-01 
       5.262142455912e-07       1.125551566594e+00 
       6.624644858228e-07       1.401765591700e+00 
       8.339933756135e-07       1.745763436124e+00 
       1.049935453828e-06       2.174179466225e+00 
       1.321790423568e-06       2.707730172129e+00 
       1.664035553295e-06       3.372215930219e+00 
       2.094896644173e-06       4.199768597691e+00 
       2.637318620431e-06       5.230405262461e+00 
       3.320187430259e-06       6.513963275257e+00 
       4.179868327872e-06       8.112510112523e+00 
       5.262142455912e-06       1.010334456996e+01 
       6.624644858228e-06       1.258273434416e+01 
       8.339933756135e-06       1.567057059617e+01 
       1.049935453828e-05       1.951616431277e+01 
       1.321790423568e-05       2.430546421396e+01 
       1.664035553295e-05       3.027004420732e+01 
       2.094896644173e-05       3.769829290290e+01 
       2.637318620431e-05       4.694934222731e+01 
       3.320187430259e-05       5.847040062451e+01 
       4.179868327872e-05       7.281831320850e+01 
       5.262142455912e-05       9.068636026053e+01 
       6.624644858228e-05       1.129375287022e+02 
       8.339933756135e-05       1.406457449875e+02 
       1.049935453828e-04       1.751468277042e+02 
       1.321790423568e-04       2.181011645727e+02 
       1.664035553295e-04       2.715702567393e+02 
       2.094896644173e-04       3.381091351440e+02 
       2.637318620431e-04       4.208759372796e+02 
       3.320187430259e-04       5.237581594465e+02 
       4.179868327872e-04       6.515116685157e+02 
       5.262142455912e-04       8.099031088707e+02 
       6.624644858228e-04       1.005839600902e+03 
       8.339933756135e-04       1.247463630304e+03 
       1.049935453828e-03       1.544183104385e+03 
       1.321790423568e-03       1.906571384384e+03 
       1.664035553295e-03       2.345977461145e+03 
       2.094896644173e-03       2.873640356850e+03 
       2.637318620431e-03       3.499199441896e+03 
       3.320187430259e-03       4.228427796391e+03 
       4.179868327872e-03       5.059981399991e+03 
       5.262142455912e-03       5.980860602961e+03 
       6.624644858228e-03       6.960673789742e+03 
       8.339933756135e-03       7.944961894111e+03 
       1.049935453828e-02       8.848049797077e+03 
       1.321790423568e-02       9.548089737163e+03 
       1.664035553285e-02       9.891319299839e+03 
       2.094896597783e-02       9.721487821679e+03 
       2.637291462627e-02       8.957205529019e+03 
       3.317152117339e-02       7.719402576907e+03 
       4.096857011408e-02       6.475326770992e+03 
       4.720277375038e-02       5.766348134384e+03 
       5.179703239178e-02       5.388685749342e+03 
       5.564060424950e-02       5.137201697781e+03 
       5.909867529155e-02       4.939478839448e+03 
       6.233834347858e-02       4.763654705271e+03 
       6.544983342074e-02       4.593144472215e+03 
       6.848802355326e-02       4.418866876755e+03 
       7.148935274657e-02       4.236313462085e+03 
       7.447972319250e-02       4.044218049226e+03 
       7.747859758657e-02       3.843788074339e+03 
       8.050129835906e-02       3.638109874553e+03 
       8.356038075214e-02       3.431575390543e+03 
       8.666649481086e-02       3.229285579782e+03 
       8.982894905064e-02       3.036440336680e+03 
       9.305609165308e-02       2.857752641574e+03 
       9.635557552747e-02       2.696931771184e+03 
       9.973454687600e-02       2.556273287192e+03 
       1.031997818327e-01       2.436379560314e+03 
       1.067577869067e-01       2.336023684829e+03 
       1.104148735981e-01       2.252171946373e+03 
       1.141772142140e-01       2.180195600872e+03 
       1.180508837750e-01       2.114317087519e+03 
       1.220418915170e-01       2.048327750673e+03 
       1.261562045774e-01       1.976555737047e+03 
       1.303997658485e-01       1.894953049366e+03 
       1.347785075724e-01       1.802046497994e+03 
       1.392983619882e-01       1.699429370795e+03 
       1.439652701609e-01       1.591535029544e+03 
       1.487851900096e-01       1.484641106861e+03 
       1.537641044794e-01       1.385329815315e+03 
       1.589080307565e-01       1.298830202720e+03 
       1.642230313962e-01       1.227691152848e+03 
       1.697152282171e-01       1.171103683864e+03 
       1.753908198025e-01       1.125041097551e+03 
       1.812561034395e-01       1.083292636183e+03 
       1.873175023280e-01       1.039325884748e+03 
       1.935815988893e-01       9.885625903129e+02 
       2.000551750258e-01       9.301842200176e+02 
       2.067452602125e-01       8.674609202905e+02 
       2.136591883655e-01       8.062092857510e+02 
       2.208046645323e-01       7.520531474119e+02 
       2.281898426011e-01       7.078562917148e+02 
       2.358234154470e-01       6.725321895694e+02 
       2.437147192463e-01       6.417505719871e+02 
       2.518738541114e-01       6.103122952646e+02 
       2.603118237738e-01       5.751117485218e+02 
       2.690406978029e-01       5.368805364597e+02 
       2.780738008562e-01       4.993449853925e+02 
       2.874259347884e-01       4.663237150628e+02 
       2.971136412129e-01       4.389699506853e+02 
       3.071555144651e-01       4.151886235451e+02 
       3.175725780782e-01       3.916014579853e+02 
       3.283887421846e-01       3.664806585806e+02 
       3.396313651621e-01       3.410228435830e+02 
       3.513319510787e-01       3.176982269960e+02 
       3.635270261284e-01       2.974830031685e+02 
       3.762592539695e-01       2.790094203215e+02 
       3.895788743204e-01       2.604671583479e+02 
       4.035455855563e-01       2.418172758217e+02 
       4.182310473730e-01       2.243989563788e+02 
       4.337222655760e-01       2.086689019714e+02 
       4.501262580765e-01       1.936387333892e+02 
       4.675766256092e-01       1.787368723874e+02 
       4.862430297406e-01       1.645790424609e+02 
       5.063452434087e-01       1.513423901198e+02 
       5.281746437099e-01       1.384339798242e+02 
       5.521283046958e-01       1.259155265741e+02 
       5.787654180719e-01       1.139055907143e+02 
       6.089054333962e-01       1.020811550292e+02 
       6.438090949208e-01       9.047502332972e+01 
       6.855361891449e-01       7.886637628651e+01 
       7.377096619638e-01       6.709911269348e+01 
       8.072760432682e-01       5.490754798282e+01 
       9.086395841472e-01       4.207040547717e+01 
       1.070541658652e+00       2.892440237580e+01 
       1.324531485122e+00       1.762706675016e+01 
       1.665796763376e+00       1.023722107309e+01 
       2.097088004742e+00       5.875009732356e+00 
       2.640077305101e+00       3.342551605082e+00 
       3.323660408463e+00       1.886955439136e+00 
       4.184240548389e+00       1.057726765201e+00 
       5.267646755426e+00       5.891024501868e-01 
       6.631574360761e+00       3.261804924788e-01 
       8.348657482965e+00       1.796345086724e-01 
       1.051033705967e+01       9.844071816066e-02 
