# Matter power spectrum P(k) at redshift z=2.5
# for k=2.09872e-07 to 10.5306 h/Mpc,
# number of wavenumbers equal to 139
#    1:k (h/Mpc)              2:P (Mpc/h)^3        
       2.098724555963e-07       1.469855335461e-01 
       2.642137675858e-07       1.833473312708e-01 
       3.326254261597e-07       2.287044382032e-01 
       4.187506016013e-07       2.852821455917e-01 
       5.271757735599e-07       3.558562447894e-01 
       6.636749778169e-07       4.438892121783e-01 
       8.355172947456e-07       5.537000834201e-01 
       1.051853954349e-06       6.906763519497e-01 
       1.324205672626e-06       8.615382873074e-01 
       1.667076171711e-06       1.074668641062e+00 
       2.098724555963e-06       1.340523915569e+00 
       2.642137675858e-06       1.672147372832e+00 
       3.326254261597e-06       2.085808947361e+00 
       4.187506016013e-06       2.601803460272e+00 
       5.271757735599e-06       3.245446279990e+00 
       6.636749778169e-06       4.048315269745e+00 
       8.355172947456e-06       5.049799916034e+00 
       1.051853954349e-05       6.299033584813e+00 
       1.324205672626e-05       7.857303569222e+00 
       1.667076171711e-05       9.801056942760e+00 
       2.098724555963e-05       1.222564918422e+01 
       2.642137675858e-05       1.525001854613e+01 
       3.326254261597e-05       1.902251360095e+01 
       4.187506016013e-05       2.372815613461e+01 
       5.271757735599e-05       2.959768832619e+01 
       6.636749778169e-05       3.691883356038e+01 
       8.355172947456e-05       4.605029458984e+01 
       1.051853954349e-04       5.743911941383e+01 
       1.324205672626e-04       7.164217616250e+01 
       1.667076171711e-04       8.935257447375e+01 
       2.098724555963e-04       1.114319109323e+02 
       2.642137675858e-04       1.389491189662e+02 
       3.326254261597e-04       1.732263230212e+02 
       4.187506016013e-04       2.158912013842e+02 
       5.271757735599e-04       2.689336594887e+02 
       6.636749778169e-04       3.347619377777e+02 
       8.355172947456e-04       4.162500349954e+02 
       1.051853954349e-03       5.167657974883e+02 
       1.324205672626e-03       6.401666960965e+02 
       1.667076171711e-03       7.907352848856e+02 
       2.098724555963e-03       9.729768058726e+02 
       2.642137675858e-03       1.191193163908e+03 
       3.326254261597e-03       1.448768253347e+03 
       4.187506016013e-03       1.747123342654e+03 
       5.271757735599e-03       2.082371625732e+03 
       6.636749778169e-03       2.449217784540e+03 
       8.355172947456e-03       2.829825949305e+03 
       1.051853954349e-02       3.195395043394e+03 
       1.324205672626e-02       3.501838738438e+03 
       1.667076171684e-02       3.689649069838e+03 
       2.098724461034e-02       3.693347123749e+03 
       2.642091506055e-02       3.470602736104e+03 
       3.321818057860e-02       3.054837758115e+03 
       4.082421340979e-02       2.622884785860e+03 
       4.670333677133e-02       2.374972255409e+03 
       5.109566153658e-02       2.237146475662e+03 
       5.480645049301e-02       2.143478308427e+03 
       5.816258318570e-02       2.069537951319e+03 
       6.131651247867e-02       2.004004396386e+03 
       6.435172852917e-02       1.940692485881e+03 
       6.731953396455e-02       1.876012864885e+03 
       7.025425833435e-02       1.808001167581e+03 
       7.318045610629e-02       1.735884911866e+03 
       7.611667252138e-02       1.659841793520e+03 
       7.907757188677e-02       1.580815715554e+03 
       8.207521574477e-02       1.500333387733e+03 
       8.511986895568e-02       1.420301321092e+03 
       8.822052878881e-02       1.342783351761e+03 
       9.138528384750e-02       1.269771693187e+03 
       9.462156428478e-02       1.202968699485e+03 
       9.793632017895e-02       1.143597711143e+03 
       1.013361510032e-01       1.092257375597e+03 
       1.048274009175e-01       1.048828576839e+03 
       1.084162296205e-01       1.012442611725e+03 
       1.121086653761e-01       9.815233925084e+02 
       1.159106448356e-01       9.539208270867e+02 
       1.198280429730e-01       9.271550737530e+02 
       1.238666955953e-01       8.987747041491e+02 
       1.280324163191e-01       8.667962341374e+02 
       1.323310095220e-01       8.301397956022e+02 
       1.367682805297e-01       7.889354646776e+02 
       1.413500441305e-01       7.445728220821e+02 
       1.460821324039e-01       6.994267040353e+02 
       1.509704027820e-01       6.562981443841e+02 
       1.560207472196e-01       6.177147947784e+02 
       1.612391033227e-01       5.852830257036e+02 
       1.666314682696e-01       5.592578519123e+02 
       1.722039163435e-01       5.384370266586e+02 
       1.779626208935e-01       5.204378071926e+02 
       1.839138815333e-01       5.023695068185e+02 
       1.900641573942e-01       4.817965580452e+02 
       1.964201072660e-01       4.576798488721e+02 
       2.029886374930e-01       4.308337642052e+02 
       2.097769585587e-01       4.035666920409e+02 
       2.167926513931e-01       3.786033679556e+02 
       2.240437445935e-01       3.578151872781e+02 
       2.315388039740e-01       3.413776856688e+02 
       2.392870361722e-01       3.277386363273e+02 
       2.472984084730e-01       3.144520830411e+02 
       2.555837875827e-01       2.995580947596e+02 
       2.641551008563e-01       2.827498905156e+02 
       2.730255244955e-01       2.654709941702e+02 
       2.822097045733e-01       2.497757102764e+02 
       2.917240185251e-01       2.367967381431e+02 
       3.015868871164e-01       2.259787773006e+02 
       3.118191500922e-01       2.156427863253e+02 
       3.224445230576e-01       2.044670263083e+02 
       3.334901591157e-01       1.926188504218e+02 
       3.449873471327e-01       1.813955655000e+02 
       3.569723903090e-01       1.717304384155e+02 
       3.694877257363e-01       1.632149264466e+02 
       3.825833705068e-01       1.547258128699e+02 
       3.963188170833e-01       1.458779045217e+02 
       4.107655572152e-01       1.373773578975e+02 
       4.260105018484e-01       1.297873652339e+02 
       4.421607053391e-01       1.226595288798e+02 
       4.593500336887e-01       1.154325505982e+02 
       4.777488086673e-01       1.084002349907e+02 
       4.975781478552e-01       1.018744860578e+02 
       5.191319767937e-01       9.547180477895e+01 
       5.428120873018e-01       8.911592024623e+01 
       5.691864320149e-01       8.299857858001e+01 
       5.990910927225e-01       7.686867485200e+01 
       6.338196224939e-01       7.075325899581e+01 
       6.755000722278e-01       6.450060648260e+01 
       7.279069431828e-01       5.799256906032e+01 
       7.983436893430e-01       5.099752546166e+01 
       9.020293828107e-01       4.324352446715e+01 
       1.068651429418e+00       3.469017779336e+01 
       1.326645494251e+00       2.648655596659e+01 
       1.668992976700e+00       2.004298813672e+01 
       2.101122593183e+00       1.515205222004e+01 
       2.645156589756e+00       1.135935403026e+01 
       3.330054849007e+00       8.384052477828e+00 
       4.192290672084e+00       6.056292596449e+00 
       5.277781260714e+00       4.262734497460e+00 
       6.644332947003e+00       2.914773002255e+00 
       8.364719591404e+00       1.933754725490e+00 
       1.053055805615e+01       1.245959870504e+00 
