# Matter power spectrum P(k) at redshift z=1
# for k=2.07798e-07 to 10.4271 h/Mpc,
# number of wavenumbers equal to 139
#    1:k (h/Mpc)              2:P (Mpc/h)^3        
       2.077978225017e-07       4.537059946967e-01 
       2.616019592629e-07       5.659453776580e-01 
       3.293373542913e-07       7.059509331848e-01 
       4.146111643703e-07       8.805915542986e-01 
       5.219645308394e-07       1.098435384465e+00 
       6.571144119289e-07       1.370170183804e+00 
       8.272580316335e-07       1.709127686633e+00 
       1.041456158134e-06       2.131937675642e+00 
       1.311115622745e-06       2.659343861596e+00 
       1.650596775274e-06       3.317221596250e+00 
       2.077978225017e-06       4.137847343771e+00 
       2.616019592629e-06       5.161482188234e+00 
       3.293373542913e-06       6.438347053656e+00 
       4.146111643703e-06       8.031086517296e+00 
       5.219645308394e-06       1.001784204394e+01 
       6.571144119289e-06       1.249608532181e+01 
       8.272580316335e-06       1.558739956997e+01 
       1.041456158134e-05       1.944344300615e+01 
       1.311115622745e-05       2.425338628657e+01 
       1.650596775274e-05       3.025318727450e+01 
       2.077978225017e-05       3.773715518479e+01 
       2.616019592629e-05       4.707236549101e+01 
       3.293373542913e-05       5.871662108793e+01 
       4.146111643703e-05       7.324081771245e+01 
       5.219645308394e-05       9.135676520127e+01 
       6.571144119289e-05       1.139517393666e+02 
       8.272580316335e-05       1.421312826210e+02 
       1.041456158134e-04       1.772720059431e+02 
       1.311115622745e-04       2.210863058993e+02 
       1.650596775274e-04       2.757008628805e+02 
       2.077978225017e-04       3.437502730210e+02 
       2.616019592629e-04       4.284857361245e+02 
       3.293373542913e-04       5.338956839402e+02 
       4.146111643703e-04       6.648297900090e+02 
       5.219645308394e-04       8.271097037272e+02 
       6.571144119289e-04       1.027600876080e+03 
       8.272580316335e-04       1.274214286350e+03 
       1.041456158134e-03       1.575801986870e+03 
       1.311115622745e-03       1.941867983500e+03 
       1.650596775274e-03       2.381890265716e+03 
       2.077978225017e-03       2.904024002191e+03 
       2.616019592629e-03       3.513187917900e+03 
       3.293373542913e-03       4.208427285119e+03 
       4.146111643703e-03       4.979641227088e+03 
       5.219645308394e-03       5.803611253838e+03 
       6.571144119289e-03       6.639901951851e+03 
       8.272580316335e-03       7.427364430924e+03 
       1.041456158134e-02       8.081742108794e+03 
       1.311115622745e-02       8.496506502921e+03 
       1.650596775273e-02       8.551654982487e+03 
       2.077978220939e-02       8.141265214711e+03 
       2.616015163456e-02       7.234662328220e+03 
       3.292554732749e-02       5.967280979358e+03 
       4.110951139772e-02       4.713728093479e+03 
       4.856648924426e-02       3.964671213674e+03 
       5.390673572984e-02       3.614754505177e+03 
       5.821780523101e-02       3.404003880366e+03 
       6.202396826230e-02       3.246251994598e+03 
       6.555100283998e-02       3.108433910888e+03 
       6.891506311118e-02       2.975122898859e+03 
       7.218439852046e-02       2.838769303646e+03 
       7.540316499080e-02       2.696256780766e+03 
       7.860211193304e-02       2.547372773314e+03 
       8.180395590718e-02       2.393925714635e+03 
       8.502632576791e-02       2.239079934537e+03 
       8.828348885997e-02       2.086760356896e+03 
       9.158741841292e-02       1.941093275582e+03 
       9.494848291540e-02       1.805898015346e+03 
       9.837590756691e-02       1.684260503262e+03 
       1.018780924380e-01       1.578214940197e+03 
       1.054628372476e-01       1.488543959546e+03 
       1.091375033426e-01       1.414692669674e+03 
       1.129091322656e-01       1.354787894398e+03 
       1.167845335691e-01       1.305764824273e+03 
       1.207703503816e-01       1.263625071362e+03 
       1.248731085900e-01       1.223861646225e+03 
       1.290992538051e-01       1.182067416028e+03 
       1.334551791518e-01       1.134677385220e+03 
       1.379472461875e-01       1.079701159061e+03 
       1.425818007582e-01       1.017224253947e+03 
       1.473651852686e-01       9.494602466681e+02 
       1.523037486324e-01       8.802516769832e+02 
       1.574038550219e-01       8.141145166230e+02 
       1.626718924489e-01       7.550982022548e+02 
       1.681142821521e-01       7.057905393719e+02 
       1.737374897296e-01       6.667137486661e+02 
       1.795480389344e-01       6.362213433730e+02 
       1.855525290350e-01       6.109218670768e+02 
       1.917576566333e-01       5.866173664156e+02 
       1.981702428280e-01       5.596259686463e+02 
       2.047972666101e-01       5.280944566406e+02 
       2.116459053929e-01       4.926884955637e+02 
       2.187235836033e-01       4.561980335707e+02 
       2.260380303218e-01       4.221675329267e+02 
       2.335973470447e-01       3.932441769103e+02 
       2.414100867918e-01       3.700578541701e+02 
       2.494853459879e-01       3.511010063954e+02 
       2.578328708481e-01       3.336249341105e+02 
       2.664631804077e-01       3.151635153985e+02 
       2.753877088925e-01       2.948896074121e+02 
       2.846189708686e-01       2.739105993985e+02 
       2.941707535960e-01       2.542578765167e+02 
       3.040583423069e-01       2.373423146165e+02 
       3.142987858570e-01       2.230353898944e+02 
       3.249112124840e-01       2.099835436745e+02 
       3.359172084810e-01       1.968313310351e+02 
       3.473412767458e-01       1.833130212696e+02 
       3.592113978572e-01       1.702383393819e+02 
       3.715597242180e-01       1.584645701377e+02 
       3.844234489078e-01       1.479958681996e+02 
       3.978459067464e-01       1.381350453218e+02 
       4.118779881231e-01       1.283868577410e+02 
       4.265799802539e-01       1.189499966956e+02 
       4.420240020269e-01       1.102274993782e+02 
       4.582972780381e-01       1.021735527649e+02 
       4.755066229640e-01       9.444896074490e+01 
       4.937847111353e-01       8.699122525409e+01 
       5.132990467062e-01       7.996576320809e+01 
       5.342651382066e-01       7.332588212960e+01 
       5.569664367137e-01       6.692617423181e+01 
       5.817855719943e-01       6.079225838065e+01 
       6.092552993368e-01       5.490073710397e+01 
       6.401456136847e-01       4.917101219254e+01 
       6.756212344367e-01       4.357927835968e+01 
       7.175455741401e-01       3.804905522462e+01 
       7.691133321564e-01       3.250604906592e+01 
       8.362751488522e-01       2.684438891820e+01 
       9.311104360292e-01       2.095152369850e+01 
       1.078732053570e+00       1.486078500885e+01 
       1.316797013292e+00       9.267859580978e+00 
       1.652682504850e+00       5.365262116055e+00 
       2.080476173335e+00       3.057401392549e+00 
       2.619163665741e+00       1.728519231240e+00 
       3.297331695938e+00       9.703544355312e-01 
       4.151094663130e+00       5.412504376893e-01 
       5.225918558178e+00       3.001389904632e-01 
       6.579041672857e+00       1.655457598606e-01 
       8.282522747213e+00       9.086043224699e-02 
       1.042707836023e+01       4.964310510808e-02 
