# Matter power spectrum P(k) at redshift z=0.5
# for k=2.08826e-07 to 10.4792 h/Mpc,
# number of wavenumbers equal to 139
#    1:k (h/Mpc)              2:P (Mpc/h)^3        
       2.088263447743e-07       5.221381954899e-01 
       2.628967920885e-07       6.545087602693e-01 
       3.309674522394e-07       8.204374260539e-01 
       4.166633361009e-07       1.028431719697e+00 
       5.245480619804e-07       1.289155964767e+00 
       6.603668849344e-07       1.615978064664e+00 
       8.313526525513e-07       2.025654903864e+00 
       1.046610980459e-06       2.539191509025e+00 
       1.317605159563e-06       3.182918020637e+00 
       1.658766618085e-06       3.989839692821e+00 
       2.088263447743e-06       5.001329136492e+00 
       2.628967920885e-06       6.269247566748e+00 
       3.309674522394e-06       7.858603806865e+00 
       4.166633361009e-06       9.850887366291e+00 
       5.245480619804e-06       1.234824645074e+01 
       6.603668849344e-06       1.547872505766e+01 
       8.313526525513e-06       1.940282754009e+01 
       1.046610980459e-05       2.432174696084e+01 
       1.317605159563e-05       3.048767859840e+01 
       1.658766618085e-05       3.821674638049e+01 
       2.088263447743e-05       4.790520296005e+01 
       2.628967920885e-05       6.004972998823e+01 
       3.309674522394e-05       7.527287137291e+01 
       4.166633361009e-05       9.435488754996e+01 
       5.245480619804e-05       1.182736323354e+02 
       6.603668849344e-05       1.482544341923e+02 
       8.313526525513e-05       1.858324155635e+02 
       1.046610980459e-04       2.329302016151e+02 
       1.317605159563e-04       2.919545249779e+02 
       1.658766618085e-04       3.659157519675e+02 
       2.088263447743e-04       4.585746806464e+02 
       2.628967920885e-04       5.746208000306e+02 
       3.309674522394e-04       7.198850868318e+02 
       4.166633361009e-04       9.015877753071e+02 
       5.245480619804e-04       1.128617006737e+03 
       6.603668849344e-04       1.411828182246e+03 
       8.313526525513e-04       1.764345931763e+03 
       1.046610980459e-03       2.201831509153e+03 
       1.317605159563e-03       2.742619861747e+03 
       1.658766618085e-03       3.407517317541e+03 
       2.088263447743e-03       4.219109635678e+03 
       2.628967920885e-03       5.200222710024e+03 
       3.309674522394e-03       6.371083761580e+03 
       4.166633361009e-03       7.744819717904e+03 
       5.245480619804e-03       9.320259361849e+03 
       6.603668849344e-03       1.107148857547e+04 
       8.313526525513e-03       1.293356595456e+04 
       1.046610980459e-02       1.478424434820e+04 
       1.317605159563e-02       1.642528512574e+04 
       1.658766618027e-02       1.757585026165e+04 
       2.088263277065e-02       1.790951534209e+04 
       2.628896814658e-02       1.718614462131e+04 
       3.303654424512e-02       1.550839045890e+04 
       4.040623988912e-02       1.368370862326e+04 
       4.596486974205e-02       1.261114759059e+04 
       5.016900693959e-02       1.198288041315e+04 
       5.374876979931e-02       1.153999556717e+04 
       5.700011403288e-02       1.118176774200e+04 
       6.006329696747e-02       1.085948534190e+04 
       6.301603179322e-02       1.054563544407e+04 
       6.590647636970e-02       1.022376667795e+04 
       6.876706453438e-02       9.884562357351e+03 
       7.162111535335e-02       9.524089620905e+03 
       7.448631721325e-02       9.142834813142e+03 
       7.737670850954e-02       8.744961867202e+03 
       8.030387277415e-02       8.337545663080e+03 
       8.327769527256e-02       7.929682588151e+03 
       8.630686117671e-02       7.531473424058e+03 
       8.939919439517e-02       7.152928117927e+03 
       9.256189428682e-02       6.802875697605e+03 
       9.580170470529e-02       6.487969123004e+03 
       9.912503686495e-02       6.211867421610e+03 
       1.025380598663e-01       5.974662007908e+03 
       1.060467680516e-01       5.772611111475e+03 
       1.096570314360e-01       5.598260041776e+03 
       1.133746335869e-01       5.441048414745e+03 
       1.172053000993e-01       5.288501690793e+03 
       1.211547200104e-01       5.128030707016e+03 
       1.252285619579e-01       4.949183273617e+03 
       1.294324865299e-01       4.745939578987e+03 
       1.337721560161e-01       4.518420334759e+03 
       1.382532426165e-01       4.273341169137e+03 
       1.428814360609e-01       4.022807225486e+03 
       1.476624515321e-01       3.781558245081e+03 
       1.526020387433e-01       3.563326467415e+03 
       1.577059929985e-01       3.377282032020e+03 
       1.629801690444e-01       3.225496819544e+03 
       1.684304985169e-01       3.102100429679e+03 
       1.740630117740e-01       2.994550718054e+03 
       1.798838649066e-01       2.887153337033e+03 
       1.858993727249e-01       2.766300958971e+03 
       1.921160485336e-01       2.625769965517e+03 
       1.985406515483e-01       2.469540571299e+03 
       2.051802428681e-01       2.310179890171e+03 
       2.120422510264e-01       2.163081987541e+03 
       2.191345482955e-01       2.039275528387e+03 
       2.264655391490e-01       1.940327136043e+03 
       2.340442626000e-01       1.857741911459e+03 
       2.418805105636e-01       1.777475380995e+03 
       2.499849649670e-01       1.687886819322e+03 
       2.583693571001e-01       1.586789068864e+03 
       2.670466537116e-01       1.482447825509e+03 
       2.760312756963e-01       1.387161720231e+03 
       2.853393569998e-01       1.308062096209e+03 
       2.949890537406e-01       1.242110612253e+03 
       3.050009167492e-01       1.179141366700e+03 
       3.153983450767e-01       1.110854797256e+03 
       3.262081440262e-01       1.038092940441e+03 
       3.374612196399e-01       9.689820726363e+02 
       3.491934534624e-01       9.096118472894e+02 
       3.614468185266e-01       8.575241348440e+02 
       3.742708226276e-01       8.054487890417e+02 
       3.877244025005e-01       7.507941814379e+02 
       4.018784498264e-01       6.982507007081e+02 
       4.168192394792e-01       6.516756840627e+02 
       4.326531737367e-01       6.080579390082e+02 
       4.495134922235e-01       5.635545258220e+02 
       4.675699985111e-01       5.202948857638e+02 
       4.870435605736e-01       4.805184565928e+02 
       5.082284362820e-01       4.414740494347e+02 
       5.315279555585e-01       4.027586054359e+02 
       5.575140964728e-01       3.658586523216e+02 
       5.870322012139e-01       3.289684403496e+02 
       6.213965322781e-01       2.925541308439e+02 
       6.627822448136e-01       2.556554946452e+02 
       7.150754607752e-01       2.178460767491e+02 
       7.858539354560e-01       1.781123938537e+02 
       8.909599331716e-01       1.357377140603e+02 
       1.060564710226e+00       9.244685352342e+01 
       1.319908517201e+00       5.648677207438e+01 
       1.660847294711e+00       3.329004058892e+01 
       2.090873541499e+00       1.939261013818e+01 
       2.632253815302e+00       1.119049363160e+01 
       3.313811218371e+00       6.402623736397e+00 
       4.171841152695e+00       3.635091101102e+00 
       5.252036841097e+00       2.049420617637e+00 
       6.611922642936e+00       1.148095669842e+00 
       8.323917436009e+00       6.394342756826e-01 
       1.047919118587e+01       3.542375995956e-01 
