# Matter power spectrum P(k) at redshift z=2
# for k=2.11822e-07 to 10.6297 h/Mpc,
# number of wavenumbers equal to 139
#    1:k (h/Mpc)              2:P (Mpc/h)^3        
       2.118219068946e-07       1.893016726680e-01 
       2.666679813643e-07       2.361317855839e-01 
       3.357150982514e-07       2.945468963459e-01 
       4.226402683116e-07       3.674129423569e-01 
       5.320725738250e-07       4.583048466491e-01 
       6.698396841070e-07       5.716819090447e-01 
       8.432782001505e-07       7.131065864639e-01 
       1.061624355382e-06       8.895173953848e-01 
       1.336505878769e-06       1.109569325781e+00 
       1.682561213795e-06       1.384058467378e+00 
       2.118219068946e-06       1.726451680679e+00 
       2.666679813643e-06       2.153547296471e+00 
       3.357150982514e-06       2.686299260586e+00 
       4.226402683116e-06       3.350845146579e+00 
       5.320725738250e-06       4.179788470303e+00 
       6.698396841070e-06       5.213798194002e+00 
       8.432782001505e-06       6.503603864237e+00 
       1.061624355382e-05       8.112484191429e+00 
       1.336505878769e-05       1.011937103065e+01 
       1.682561213795e-05       1.262272076365e+01 
       2.118219068946e-05       1.574534248193e+01 
       2.666679813643e-05       1.964041875632e+01 
       3.357150982514e-05       2.449901224165e+01 
       4.226402683116e-05       3.055942218339e+01 
       5.320725738250e-05       3.811884150284e+01 
       6.698396841070e-05       4.754786994799e+01 
       8.432782001505e-05       5.930856285399e+01 
       1.061624355382e-04       7.397683728345e+01 
       1.336505878769e-04       9.227020978431e+01 
       1.682561213795e-04       1.150819829313e+02 
       2.118219068946e-04       1.435230864959e+02 
       2.666679813643e-04       1.789727260477e+02 
       3.357150982514e-04       2.231386404281e+02 
       4.226402683116e-04       2.781268762122e+02 
       5.320725738250e-04       3.465192613978e+02 
       6.698396841070e-04       4.314540682494e+02 
       8.432782001505e-04       5.367021368534e+02 
       1.061624355382e-03       6.667278255755e+02 
       1.336505878769e-03       8.267188122434e+02 
       1.682561213795e-03       1.022538602427e+03 
       2.118219068946e-03       1.260532302410e+03 
       2.666679813643e-03       1.547052646347e+03 
       3.357150982514e-03       1.887657784788e+03 
       4.226402683116e-03       2.285830977305e+03 
       5.320725738250e-03       2.740948744940e+03 
       6.698396841070e-03       3.245338350899e+03 
       8.432782001505e-03       3.780268594714e+03 
       1.061624355382e-02       4.310835081967e+03 
       1.336505878769e-02       4.780765465819e+03 
       1.682561213726e-02       5.110655872687e+03 
       2.118218873338e-02       5.208446033366e+03 
       2.666600894744e-02       5.006350907064e+03 
       3.350642759899e-02       4.532728786938e+03 
       4.093684881437e-02       4.016113091593e+03 
       4.651570262115e-02       3.709515259156e+03 
       5.074612090339e-02       3.526583455634e+03 
       5.435398239903e-02       3.395773106656e+03 
       5.763366550465e-02       3.289045293021e+03 
       6.072514336641e-02       3.192781670573e+03 
       6.370615820353e-02       3.099278686376e+03 
       6.662496987124e-02       3.003925838045e+03 
       6.951412432093e-02       2.904103792085e+03 
       7.239704638056e-02       2.798690091563e+03 
       7.529152060117e-02       2.687785965074e+03 
       7.821167251401e-02       2.572508467789e+03 
       8.116916526612e-02       2.454779056226e+03 
       8.417395777219e-02       2.337079302564e+03 
       8.723480423671e-02       2.222172320712e+03 
       9.035959408505e-02       2.112802492131e+03 
       9.355558955165e-02       2.011394465015e+03 
       9.682959541041e-02       1.919776945494e+03 
       1.001880823742e-01       1.838953755092e+03 
       1.036372780330e-01       1.768942761864e+03 
       1.071832345260e-01       1.708701280209e+03 
       1.108318792148e-01       1.656160871510e+03 
       1.145890527448e-01       1.608399708328e+03 
       1.184605376585e-01       1.561976594625e+03 
       1.224520799133e-01       1.513430714339e+03 
       1.265694051209e-01       1.459901417373e+03 
       1.308182309626e-01       1.399754973367e+03 
       1.352042770014e-01       1.333047506445e+03 
       1.397332729545e-01       1.261643918465e+03 
       1.444109663869e-01       1.188884915244e+03 
       1.492431307286e-01       1.118830418892e+03 
       1.542355744733e-01       1.055258376057e+03 
       1.593941523937e-01       1.000683662758e+03 
       1.647247795938e-01       9.556558636801e+02 
       1.702334492049e-01       9.185283475463e+02 
       1.759262545273e-01       8.858195903360e+02 
       1.818094164181e-01       8.531989141826e+02 
       1.878893167280e-01       8.169372679333e+02 
       1.941725386121e-01       7.753572412942e+02 
       2.006659145744e-01       7.295904116195e+02 
       2.073765831738e-01       6.831172160392e+02 
       2.143120554239e-01       6.401750629856e+02 
       2.214802920798e-01       6.037801523878e+02 
       2.288897932337e-01       5.743253361767e+02 
       2.365497019619e-01       5.494306290225e+02 
       2.444699242023e-01       5.252108903364e+02 
       2.526612676264e-01       4.984803037417e+02 
       2.611356030493e-01       4.686781047843e+02 
       2.699060529499e-01       4.381117072231e+02 
       2.789872130351e-01       4.101677233499e+02 
       2.883954145888e-01       3.867778024583e+02 
       2.981490377576e-01       3.670606239992e+02 
       3.082688891751e-01       3.481939932297e+02 
       3.187786617486e-01       3.279116833513e+02 
       3.297055005294e-01       3.064840517467e+02 
       3.410807071086e-01       2.861636674582e+02 
       3.529406270605e-01       2.686015599018e+02 
       3.653277823796e-01       2.530804410975e+02 
       3.782923364102e-01       2.375892640878e+02 
       3.918940169853e-01       2.214439797372e+02 
       4.062046818402e-01       2.059558900299e+02 
       4.213118015221e-01       1.921633701138e+02 
       4.373232810648e-01       1.792063160970e+02 
       4.543742823853e-01       1.660382016148e+02 
       4.726371186529e-01       1.532670235545e+02 
       4.923360129811e-01       1.414876485818e+02 
       5.137698359623e-01       1.299249468012e+02 
       5.373484732800e-01       1.184870732631e+02 
       5.636535990125e-01       1.075680680034e+02 
       5.935456053314e-01       9.666072094872e+01 
       6.283635335756e-01       8.589426503854e+01 
       6.703263722939e-01       7.498716228683e+01 
       7.234046321521e-01       6.381064554403e+01 
       7.953530967798e-01       5.207000039426e+01 
       9.023932151892e-01       3.956058371642e+01 
       1.075245255219e+00       2.682530210340e+01 
       1.338825412112e+00       1.632433882836e+01 
       1.684708509349e+00       9.588023339478e+00 
       2.120913808483e+00       5.565907014036e+00 
       2.670072272957e+00       3.200157041182e+00 
       3.361421835748e+00       1.824095993462e+00 
       4.231779368783e+00       1.031632241480e+00 
       5.327494584467e+00       5.793209816312e-01 
       6.706918313581e+00       3.232280514802e-01 
       8.443509899795e+00       1.792830501708e-01 
       1.062974917759e+01       9.890653382088e-02 
