# Matter power spectrum P(k) at redshift z=0
# for k=2.10475e-07 to 10.5619 h/Mpc,
# number of wavenumbers equal to 139
#    1:k (h/Mpc)              2:P (Mpc/h)^3        
       2.104751089585e-07       9.995925913818e-01 
       2.649724632180e-07       1.250584461480e+00 
       3.335805673709e-07       1.564598925583e+00 
       4.199530531439e-07       1.957460588655e+00 
       5.286895703634e-07       2.448967520568e+00 
       6.655807350810e-07       3.063888969216e+00 
       8.379165009942e-07       3.833213592292e+00 
       1.054874376063e-06       4.795711111097e+00 
       1.328008158276e-06       5.999886082481e+00 
       1.671863217524e-06       7.506422244992e+00 
       2.104751089585e-06       9.391240609752e+00 
       2.649724632180e-06       1.174932539255e+01 
       3.335805673709e-06       1.469951055623e+01 
       4.199530531439e-06       1.839046811260e+01 
       5.286895703634e-06       2.300819982292e+01 
       6.655807350810e-06       2.878540957076e+01 
       8.379165009942e-06       3.601322819145e+01 
       1.054874376063e-05       4.505588055735e+01 
       1.328008158276e-05       5.636903198405e+01 
       1.671863217524e-05       7.052273433109e+01 
       2.104751089585e-05       8.823011994044e+01 
       2.649724632180e-05       1.103832730989e+02 
       3.335805673709e-05       1.380980544324e+02 
       4.199530531439e-05       1.727700731829e+02 
       5.286895703634e-05       2.161445016984e+02 
       6.655807350810e-05       2.704030010362e+02 
       8.379165009942e-05       3.382716480903e+02 
       1.054874376063e-04       4.231543435649e+02 
       1.328008158276e-04       5.292965604837e+02 
       1.671863217524e-04       6.619841098604e+02 
       2.104751089585e-04       8.277802116016e+02 
       2.649724632180e-04       1.034800535602e+03 
       3.335805673709e-04       1.293018712057e+03 
       4.199530531439e-04       1.614583246188e+03 
       5.286895703634e-04       2.014112060955e+03 
       6.655807350810e-04       2.508916399998e+03 
       8.379165009942e-04       3.119083944186e+03 
       1.054874376063e-03       3.867270378651e+03 
       1.328008158276e-03       4.777866047404e+03 
       1.671863217524e-03       5.875153268406e+03 
       2.104751089585e-03       7.180208965362e+03 
       2.649724632180e-03       8.706031759332e+03 
       3.335805673709e-03       1.045080651935e+04 
       4.199530531439e-03       1.238961634311e+04 
       5.286895703634e-03       1.446441987082e+04 
       6.655807350810e-03       1.651756135638e+04 
       8.379165009942e-03       1.848543161624e+04 
       1.054874376063e-02       2.011760696184e+04 
       1.328008158276e-02       2.114897423235e+04 
       1.671863217524e-02       2.128365064527e+04 
       2.104751086559e-02       2.026371271989e+04 
       2.649721078327e-02       1.801875463037e+04 
       3.335105434280e-02       1.488461116657e+04 
       4.167766322004e-02       1.176968478254e+04 
       4.939287990055e-02       9.878125862136e+03 
       5.491345821635e-02       8.996679534265e+03 
       5.934857887151e-02       8.467117598540e+03 
       6.325424725246e-02       8.070625762025e+03 
       6.686822779615e-02       7.724926861924e+03 
       7.031207810609e-02       7.392389357322e+03 
       7.365690508043e-02       7.054993979421e+03 
       7.694856124704e-02       6.705543924018e+03 
       8.021889463004e-02       6.343765623463e+03 
       8.349138334659e-02       5.974074641195e+03 
       8.678421449454e-02       5.603925360555e+03 
       9.011208446187e-02       5.242373161856e+03 
       9.348731002449e-02       4.898758824139e+03 
       9.692054482439e-02       4.581542434686e+03 
       1.004212583453e-01       4.297350591194e+03 
       1.039980658028e-01       4.050289017313e+03 
       1.076589610045e-01       3.841537894581e+03 
       1.114114840373e-01       3.669214724888e+03 
       1.152628439449e-01       3.528484164541e+03 
       1.192200095513e-01       3.411920114131e+03 
       1.232897772560e-01       3.310168211450e+03 
       1.274788218824e-01       3.212976628298e+03 
       1.317937348935e-01       3.110606826126e+03 
       1.362410531224e-01       2.995487734594e+03 
       1.408272803962e-01       2.863772513803e+03 
       1.455589039177e-01       2.716306385167e+03 
       1.504424069290e-01       2.558551193079e+03 
       1.554842789529e-01       2.399299264049e+03 
       1.606910247659e-01       2.248454022409e+03 
       1.660691731567e-01       2.114522655408e+03 
       1.716252864713e-01       2.002543193828e+03 
       1.773659719044e-01       1.912944942612e+03 
       1.832978954756e-01       1.841531834105e+03 
       1.894277996141e-01       1.780600073807e+03 
       1.957625252637e-01       1.721110087033e+03 
       2.023090394155e-01       1.655556791002e+03 
       2.090744689763e-01       1.580630166951e+03 
       2.160661418917e-01       1.498375601030e+03 
       2.232916364726e-01       1.415012998948e+03 
       2.307588399282e-01       1.337857093932e+03 
       2.384760172023e-01       1.271927327118e+03 
       2.464518913521e-01       1.217900983636e+03 
       2.546957369229e-01       1.172214188837e+03 
       2.632174880712e-01       1.129162149156e+03 
       2.720278636058e-01       1.084047470184e+03 
       2.811385116764e-01       1.035690712513e+03 
       2.905621775923e-01       9.866289543755e+02 
       3.003128992461e-01       9.408276214770e+02 
       3.104062359323e-01       9.006872309077e+02 
       3.208595380944e-01       8.655706516196e+02 
       3.316922678437e-01       8.327421586915e+02 
       3.429263832011e-01       7.997960918198e+02 
       3.545868032035e-01       7.664971341770e+02 
       3.667019767619e-01       7.344247295330e+02 
       3.793045861169e-01       7.049743647854e+02 
       3.924324269278e-01       6.779284953758e+02 
       4.061295230157e-01       6.519923222901e+02 
       4.204475569855e-01       6.264054738583e+02 
       4.354477322741e-01       6.015728715638e+02 
       4.512032339354e-01       5.780832579542e+02 
       4.678025352676e-01       5.557358805519e+02 
       4.853539233497e-01       5.339598009657e+02 
       5.039918207371e-01       5.126718690516e+02 
       5.238858214396e-01       4.920610758507e+02 
       5.452539474833e-01       4.719594264036e+02 
       5.683826857567e-01       4.520977740222e+02 
       5.936583326205e-01       4.324262390891e+02 
       6.216180298906e-01       4.127736590884e+02 
       6.530368552106e-01       3.928729845417e+02 
       6.890848889380e-01       3.724524458143e+02 
       7.316295315873e-01       3.510610503696e+02 
       7.838626933964e-01       3.280426129558e+02 
       8.517090987067e-01       3.023211318651e+02 
       9.471593638257e-01       2.721129801559e+02 
       1.095203443556e+00       2.349070136177e+02 
       1.334379856777e+00       1.905013597060e+02 
       1.674079954548e+00       1.468599321332e+02 
       2.107386180667e+00       1.097068364666e+02 
       2.653041158923e+00       7.934337412338e+01 
       3.339980932782e+00       5.548504699371e+01 
       4.204786871187e+00       3.758599832141e+01 
       5.293513043316e+00       2.475605575833e+01 
       6.664138087895e+00       1.592295499626e+01 
       8.389652786556e+00       1.004425847083e+01 
       1.056194708913e+01       6.238342924178e+00 
