# Matter power spectrum P(k) at redshift z=0
# for k=2.08894e-07 to 10.4824 h/Mpc,
# number of wavenumbers equal to 139
#    1:k (h/Mpc)              2:P (Mpc/h)^3        
       2.088938409866e-07       1.261347743704e+00 
       2.629817647853e-07       1.573384380528e+00 
       3.310744265267e-07       1.962613736508e+00 
       4.167980087496e-07       2.448132017200e+00 
       5.247176048001e-07       3.053759514007e+00 
       6.605803266986e-07       3.809209264399e+00 
       8.316213598121e-07       4.751544819266e+00 
       1.046949262858e-06       5.926998636290e+00 
       1.318031031872e-06       7.393240311754e+00 
       1.659302759556e-06       9.222205931589e+00 
       2.088938409866e-06       1.150362734700e+01 
       2.629817647853e-06       1.434943451967e+01 
       3.310744265267e-06       1.789924689796e+01 
       4.167980087496e-06       2.232722320377e+01 
       5.247176048001e-06       2.785060560791e+01 
       6.605803266986e-06       3.474037733106e+01 
       8.316213598121e-06       4.333455623612e+01 
       1.046949262858e-05       5.405477600544e+01 
       1.318031031872e-05       6.742696718212e+01 
       1.659302759556e-05       8.410715033477e+01 
       2.088938409866e-05       1.049136020440e+02 
       2.629817647853e-05       1.308669624795e+02 
       3.310744265267e-05       1.632402338179e+02 
       4.167980087496e-05       2.036210860213e+02 
       5.247176048001e-05       2.539894549211e+02 
       6.605803266986e-05       3.168140981441e+02 
       8.316213598121e-05       3.951725684201e+02 
       1.046949262858e-04       4.928999475699e+02 
       1.318031031872e-04       6.147725847213e+02 
       1.659302759556e-04       7.667338294584e+02 
       2.088938409866e-04       9.561690118760e+02 
       2.629817647853e-04       1.192236125047e+03 
       3.310744265267e-04       1.486255999136e+03 
       4.167980087496e-04       1.852160421274e+03 
       5.247176048001e-04       2.306988498675e+03 
       6.605803266986e-04       2.871410829189e+03 
       8.316213598121e-04       3.570241705437e+03 
       1.046949262858e-03       4.432842617361e+03 
       1.318031031872e-03       5.493195777913e+03 
       1.659302759556e-03       6.789307607488e+03 
       2.088938409866e-03       8.361625999042e+03 
       2.629817647853e-03       1.024982104473e+04 
       3.310744265267e-03       1.248704969354e+04 
       4.167980087496e-03       1.501831638576e+04 
       5.247176048001e-03       1.794160107954e+04 
       6.605803266986e-03       2.114538389994e+04 
       8.316213598121e-03       2.449197638440e+04 
       1.046949262858e-02       2.773947390037e+04 
       1.318031031872e-02       3.051457254806e+04 
       1.659302759506e-02       3.231173230102e+04 
       2.088938256332e-02       3.257277831691e+04 
       2.629751876680e-02       3.092861376828e+04 
       3.305047382303e-02       2.764330413139e+04 
       4.046018515406e-02       2.422722559817e+04 
       4.607206425336e-02       2.228673956693e+04 
       5.030695606121e-02       2.119747356755e+04 
       5.390790121205e-02       2.046149519554e+04 
       5.717602855314e-02       1.988769290415e+04 
       6.025363649990e-02       1.938345630157e+04 
       6.321940447884e-02       1.889556742450e+04 
       6.612201527886e-02       1.839114853192e+04 
       6.899421825368e-02       1.785055690937e+04 
       7.185953735774e-02       1.726445787065e+04 
       7.473580251081e-02       1.663237468101e+04 
       7.763715503463e-02       1.596157811594e+04 
       8.057525669053e-02       1.526578469922e+04 
       8.356005455615e-02       1.456345323870e+04 
       8.660028436505e-02       1.387568275863e+04 
       8.970381269077e-02       1.322386129856e+04 
       9.287787591135e-02       1.262729529511e+04 
       9.612925080778e-02       1.210104481333e+04 
       9.946437852863e-02       1.165413388427e+04 
       1.028894559081e-01       1.128822530880e+04 
       1.064105034027e-01       1.099681657354e+04 
       1.100334159537e-01       1.076507070888e+04 
       1.137640011891e-01       1.057054195548e+04 
       1.176080081421e-01       1.038520382924e+04 
       1.215711488473e-01       1.017916163318e+04 
       1.256591146348e-01       9.926029875534e+03 
       1.298775885800e-01       9.609131731368e+03 
       1.342322553259e-01       9.226727877555e+03 
       1.387288093412e-01       8.794055196643e+03 
       1.433729625728e-01       8.340658978463e+03 
       1.481704523881e-01       7.903270679083e+03 
       1.531270506643e-01       7.516352872043e+03 
       1.582485748535e-01       7.203187530012e+03 
       1.635409018401e-01       6.969718808271e+03 
       1.690099853919e-01       6.802238108715e+03 
       1.746618780040e-01       6.669644615714e+03 
       1.805027579278e-01       6.531294533749e+03 
       1.865389621869e-01       6.350456148606e+03 
       1.927770263948e-01       6.109601109346e+03 
       1.992237322311e-01       5.819478883059e+03 
       2.058861634919e-01       5.514829880175e+03 
       2.127717717388e-01       5.237638108631e+03 
       2.198884527248e-01       5.017206192870e+03 
       2.272446350013e-01       4.857158080309e+03 
       2.348493824250e-01       4.734403356990e+03 
       2.427125127149e-01       4.610899432176e+03 
       2.508447347825e-01       4.455155828354e+03 
       2.592578083276e-01       4.262260535513e+03 
       2.679647302040e-01       4.056335724179e+03 
       2.769799534001e-01       3.871264203184e+03 
       2.863196462589e-01       3.725268369348e+03 
       2.960020019310e-01       3.609032260236e+03 
       3.060476112571e-01       3.495205238370e+03 
       3.164799166178e-01       3.362713277253e+03 
       3.273257702880e-01       3.215463338331e+03 
       3.386161291980e-01       3.075441064001e+03 
       3.503869298683e-01       2.957390040270e+03 
       3.626802043832e-01       2.853975878552e+03 
       3.755455233234e-01       2.747331356958e+03 
       3.890418890387e-01       2.632462737809e+03 
       4.032402597763e-01       2.521283456258e+03 
       4.182269743774e-01       2.421997048568e+03 
       4.341084900325e-01       2.327188909522e+03 
       4.510180806381e-01       2.229104680316e+03 
       4.691255425697e-01       2.132746461868e+03 
       4.886516572085e-01       2.042031635168e+03 
       5.098904458237e-01       1.951433319995e+03 
       5.332447161514e-01       1.860421287878e+03 
       5.592853676729e-01       1.770959738552e+03 
       5.888555395109e-01       1.679667589119e+03 
       6.232649035524e-01       1.586314400392e+03 
       6.646786384263e-01       1.488057222311e+03 
       7.169599312457e-01       1.381548948769e+03 
       7.876313052907e-01       1.260360845153e+03 
       8.924113662114e-01       1.113562666547e+03 
       1.061376631862e+00       9.276431300535e+02 
       1.320351555563e+00       7.142562260886e+02 
       1.661352173519e+00       5.174620419657e+02 
       2.091508293174e+00       3.577143135841e+02 
       2.633052917953e+00       2.381884202323e+02 
       3.314817229004e+00       1.541643156017e+02 
       4.173107645046e+00       9.773561827346e+01 
       5.253631260501e+00       6.105234416175e+01 
       6.613929898041e+00       3.774190623837e+01 
       8.326444420469e+00       2.316137140506e+01 
       1.048237247082e+01       1.414057361032e+01 
