# Matter power spectrum P(k) at redshift z=2
# for k=2.09974e-07 to 10.5351 h/Mpc,
# number of wavenumbers equal to 139
#    1:k (h/Mpc)              2:P (Mpc/h)^3        
       2.099739429982e-07       2.046150753478e-01 
       2.643415326551e-07       2.552334715588e-01 
       3.327862728521e-07       3.183740243588e-01 
       4.189530955897e-07       3.971345087053e-01 
       5.274306983878e-07       4.953790379467e-01 
       6.639959091607e-07       6.179276429259e-01 
       8.359213233698e-07       7.707927501951e-01 
       1.052362596251e-06       9.614741604397e-01 
       1.324846014842e-06       1.199326999019e+00 
       1.667882314799e-06       1.496020691346e+00 
       2.099739429982e-06       1.866111477419e+00 
       2.643415326551e-06       2.327756554155e+00 
       3.327862728521e-06       2.903604877311e+00 
       4.189530955897e-06       3.621908315614e+00 
       5.274306983878e-06       4.517907654752e+00 
       6.639959091607e-06       5.635561416021e+00 
       8.359213233698e-06       7.029702229590e+00 
       1.052362596251e-05       8.768726418259e+00 
       1.324846014842e-05       1.093794846167e+01 
       1.667882314799e-05       1.364378433841e+01 
       2.099739429982e-05       1.701896789849e+01 
       2.643415326551e-05       2.122905394764e+01 
       3.327862728521e-05       2.648052276885e+01 
       4.189530955897e-05       3.303087507320e+01 
       5.274306983878e-05       4.120119565084e+01 
       6.639959091607e-05       5.139176866632e+01 
       8.359213233698e-05       6.410144460277e+01 
       1.052362596251e-04       7.995157951568e+01 
       1.324846014842e-04       9.971546723124e+01 
       1.667882314799e-04       1.243542147331e+02 
       2.099739429982e-04       1.550598688112e+02 
       2.643415326551e-04       1.933061015834e+02 
       3.327862728521e-04       2.409055881505e+02 
       4.189530955897e-04       3.000709078668e+02 
       5.274306983878e-04       3.734719333020e+02 
       6.639959091607e-04       4.642773963109e+02 
       8.359213233698e-04       5.761635048711e+02 
       1.052362596251e-03       7.132714647713e+02 
       1.324846014842e-03       8.800942500789e+02 
       1.667882314799e-03       1.081238554899e+03 
       2.099739429982e-03       1.320921159011e+03 
       2.643415326551e-03       1.602095408902e+03 
       3.327862728521e-03       1.925294997884e+03 
       4.189530955897e-03       2.287121278378e+03 
       5.274306983878e-03       2.678322333117e+03 
       6.639959091607e-03       3.081664037155e+03 
       8.359213233698e-03       3.469889646029e+03 
       1.052362596251e-02       3.804017553522e+03 
       1.324846014842e-02       4.033048226465e+03 
       1.667882314797e-02       4.097541749411e+03 
       2.099739420995e-02       3.942591277246e+03 
       2.643407312255e-02       3.547809671341e+03 
       3.326600856051e-02       2.973004259231e+03 
       4.142426736715e-02       2.399624170251e+03 
       4.854652187213e-02       2.061639773386e+03 
       5.367411949512e-02       1.896342324956e+03 
       5.786298561980e-02       1.792595410677e+03 
       6.158451899542e-02       1.713199596991e+03 
       6.504552720493e-02       1.643261215590e+03 
       6.835407976650e-02       1.575610802916e+03 
       7.157438660174e-02       1.506634509896e+03 
       7.474833671990e-02       1.434765859878e+03 
       7.790529234845e-02       1.359806154486e+03 
       8.106706215919e-02       1.282530152403e+03 
       8.425064760379e-02       1.204386553226e+03 
       8.746986221578e-02       1.127225919135e+03 
       9.073633774018e-02       1.053039275701e+03 
       9.406017650723e-02       9.837132401422e+02 
       9.745038954166e-02       9.208167581039e+02 
       1.009151994428e-01       8.654332601417e+02 
       1.044622548391e-01       8.180466010797e+02 
       1.080987852023e-01       7.784820485143e+02 
       1.118317143247e-01       7.459014480115e+02 
       1.156677444457e-01       7.188559930978e+02 
       1.196134191032e-01       6.954074713059e+02 
       1.236751702950e-01       6.733347822518e+02 
       1.278593539266e-01       6.504325383873e+02 
       1.321722764622e-01       6.248789413222e+02 
       1.366202149924e-01       5.956056599848e+02 
       1.412094324639e-01       5.625633472087e+02 
       1.459461895062e-01       5.267742881911e+02 
       1.508367540842e-01       4.901132026042e+02 
       1.558874100725e-01       4.548505379315e+02 
       1.611044657635e-01       4.230822189973e+02 
       1.664942632653e-01       3.962084949116e+02 
       1.720631897161e-01       3.745945853452e+02 
       1.778176912170e-01       3.574837627889e+02 
       1.837642903736e-01       3.431877271940e+02 
       1.899096083263e-01       3.295528130082e+02 
       1.962603921447e-01       3.146375483973e+02 
       2.028235484644e-01       2.974049024123e+02 
       2.096061842553e-01       2.781160447568e+02 
       2.166156556443e-01       2.581727362549e+02 
       2.238596257700e-01       2.394353497545e+02 
       2.313461327461e-01       2.233533557320e+02 
       2.390836689536e-01       2.103377952579e+02 
       2.470812731003e-01       1.996488459564e+02 
       2.553486367897e-01       1.898361539193e+02 
       2.638962277615e-01       1.795442361382e+02 
       2.727354325282e-01       1.682666383659e+02 
       2.818787218913e-01       1.565558519986e+02 
       2.913398438157e-01       1.455162097260e+02 
       3.011340494629e-01       1.359606432344e+02 
       3.112783599335e-01       1.278666089786e+02 
       3.217918835960e-01       1.205037570654e+02 
       3.326961970046e-01       1.130966299659e+02 
       3.440158066372e-01       1.054605924379e+02 
       3.557787144889e-01       9.803826621223e+01 
       3.680171186111e-01       9.133522578143e+01 
       3.807682910380e-01       8.538098632046e+01 
       3.940756917909e-01       7.977964451335e+01 
       4.079904013036e-01       7.422767332076e+01 
       4.225729886809e-01       6.883034964726e+01 
       4.378959862611e-01       6.383472780443e+01 
       4.540472229913e-01       5.922645825508e+01 
       4.711343991098e-01       5.480025160730e+01 
       4.892914961505e-01       5.051202498245e+01 
       5.086879709861e-01       4.646727059248e+01 
       5.295422977143e-01       4.264274465576e+01 
       5.521425289902e-01       3.894658400167e+01 
       5.768786310432e-01       3.539710522202e+01 
       6.042954575389e-01       3.198249555219e+01 
       6.351838043991e-01       2.865263782199e+01 
       6.707460365466e-01       2.539560213875e+01 
       7.129180829532e-01       2.216426248697e+01 
       7.650449561262e-01       1.891394091615e+01 
       8.334133968770e-01       1.557956535697e+01 
       9.308792378994e-01       1.209532768558e+01 
       1.083942701118e+00       8.500030861499e+00 
       1.329269632609e+00       5.258920986686e+00 
       1.669756903587e+00       3.046897437633e+00 
       2.102019566725e+00       1.740704125178e+00 
       2.646285503974e+00       9.864248573802e-01 
       3.331476067598e+00       5.549370511953e-01 
       4.194079880283e+00       3.101357898572e-01 
       5.280033740383e+00       1.722832002340e-01 
       6.647168650899e+00       9.517896538694e-02 
       8.368289531099e+00       5.231714412660e-02 
       1.053505234395e+01       2.862371468231e-02 
