# Matter power spectrum P(k) at redshift z=1.5
# for k=2.02722e-07 to 10.1745 h/Mpc,
# number of wavenumbers equal to 139
#    1:k (h/Mpc)              2:P (Mpc/h)^3        
       2.027222172524e-07       3.188595922548e-01 
       2.552121508344e-07       3.977401985359e-01 
       3.212930620840e-07       4.961345661670e-01 
       4.044840004907e-07       6.188700780832e-01 
       5.092151868820e-07       7.719683315946e-01 
       6.410639388372e-07       9.629405679492e-01 
       8.070516831870e-07       1.201156184930e+00 
       1.016017872595e-06       1.498302413765e+00 
       1.279090718647e-06       1.868957711543e+00 
       1.610279809695e-06       2.331307001766e+00 
       2.027222172524e-06       2.908033848652e+00 
       2.552121508344e-06       3.627433339144e+00 
       3.212930620840e-06       4.524800264914e+00 
       4.044840004907e-06       5.644160699878e+00 
       5.092151868820e-06       7.040431910234e+00 
       6.410639388372e-06       8.782116525362e+00 
       8.070516831870e-06       1.095466308016e+01 
       1.016017872595e-05       1.366465764181e+01 
       1.279090718647e-05       1.704505188923e+01 
       1.610279809695e-05       2.126168355120e+01 
       2.027222172524e-05       2.652140796398e+01 
       2.552121508344e-05       3.308223742352e+01 
       3.212930620840e-05       4.126598129787e+01 
       4.044840004907e-05       5.147399820518e+01 
       5.092151868820e-05       6.420681556896e+01 
       6.410639388372e-05       8.008854474225e+01 
       8.070516831870e-05       9.989722158199e+01 
       1.016017872595e-04       1.246024279402e+02 
       1.279090718647e-04       1.554117791318e+02 
       1.610279809695e-04       1.938280514686e+02 
       2.027222172524e-04       2.417187770331e+02 
       2.552121508344e-04       3.013998708691e+02 
       3.212930620840e-04       3.757339736455e+02 
       4.044840004907e-04       4.682422539616e+02 
       5.092151868820e-04       5.832249947135e+02 
       6.410639388372e-04       7.258814567151e+02 
       8.070516831870e-04       9.024144289100e+02 
       1.016017872595e-03       1.120100003525e+03 
       1.279090718647e-03       1.387287919488e+03 
       1.610279809695e-03       1.713242373429e+03 
       2.027222172524e-03       2.107659747560e+03 
       2.552121508344e-03       2.579751801381e+03 
       3.212930620840e-03       3.136774131512e+03 
       4.044840004907e-03       3.781777730729e+03 
       5.092151868820e-03       4.500189393140e+03 
       6.410639388372e-03       5.291164087358e+03 
       8.070516831870e-03       6.113981777539e+03 
       1.016017872595e-02       6.911570797610e+03 
       1.279090718647e-02       7.599382684371e+03 
       1.610279809398e-02       8.067683714180e+03 
       2.027221591982e-02       8.201309668148e+03 
       2.551947968984e-02       7.930756020885e+03 
       3.201751622906e-02       7.318391022648e+03 
       3.867582814831e-02       6.680624094432e+03 
       4.351178524827e-02       6.283356048458e+03 
       4.727021297964e-02       6.012152760745e+03 
       5.052134445846e-02       5.795123760035e+03 
       5.349976425012e-02       5.603319436704e+03 
       5.632050183213e-02       5.422764754810e+03 
       5.904887431177e-02       5.246000800359e+03 
       6.172608747570e-02       5.069086381987e+03 
       6.438027733203e-02       4.890320748847e+03 
       6.703189890760e-02       4.709585858391e+03 
       6.969661299614e-02       4.527925271658e+03 
       7.238694800562e-02       4.347203515411e+03 
       7.511331283026e-02       4.169785706424e+03 
       7.788464333770e-02       3.998217172964e+03 
       8.070883092084e-02       3.834906334498e+03 
       8.359301560535e-02       3.681825133806e+03 
       8.654379176292e-02       3.540249608039e+03 
       8.956735556530e-02       3.410563431403e+03 
       9.266961247203e-02       3.292149331455e+03 
       9.585625659832e-02       3.183392896270e+03 
       9.913282985612e-02       3.081818957705e+03 
       1.025047662719e-01       2.984373723944e+03 
       1.059774252838e-01       2.887845675314e+03 
       1.095561167740e-01       2.789386858592e+03 
       1.132461198985e-01       2.687051850180e+03 
       1.170526973161e-01       2.580235276415e+03 
       1.209811061112e-01       2.469874068736e+03 
       1.250366065017e-01       2.358312363399e+03 
       1.292244692903e-01       2.248807677416e+03 
       1.335499829333e-01       2.144763883662e+03 
       1.380184610449e-01       2.048873116238e+03 
       1.426352511246e-01       1.962392962547e+03 
       1.474057452706e-01       1.884771607043e+03 
       1.523353936319e-01       1.813765161099e+03 
       1.574297213403e-01       1.746082546140e+03 
       1.626943496579e-01       1.678436508946e+03 
       1.681350220770e-01       1.608689480362e+03 
       1.737576361125e-01       1.536643514101e+03 
       1.795682815497e-01       1.464069455601e+03 
       1.855732859471e-01       1.393876377506e+03 
       1.917792682605e-01       1.328757335317e+03 
       1.981932015596e-01       1.269947920240e+03 
       2.048224859663e-01       1.216707075618e+03 
       2.116750331661e-01       1.166798994973e+03 
       2.187593641580e-01       1.117763129276e+03 
       2.260847223264e-01       1.068290653798e+03 
       2.336612044921e-01       1.018857962986e+03 
       2.414999133426e-01       9.711727404017e+02 
       2.496131356428e-01       9.268204957772e+02 
       2.580145519380e-01       8.861135247700e+02 
       2.667194852089e-01       8.479923528302e+02 
       2.757451982711e-01       8.110072336974e+02 
       2.851112528639e-01       7.745197378368e+02 
       2.948399476687e-01       7.390483229463e+02 
       3.049568584344e-01       7.054858734603e+02 
       3.154915117045e-01       6.740639127343e+02 
       3.264782354698e-01       6.441745138149e+02 
       3.379572471714e-01       6.151518603264e+02 
       3.499760646530e-01       5.869788362454e+02 
       3.625913634328e-01       5.600380412043e+02 
       3.758714615626e-01       5.343801370945e+02 
       3.898997041681e-01       5.096350537964e+02 
       4.047791659797e-01       4.855846610231e+02 
       4.206393323724e-01       4.623237866746e+02 
       4.376458337653e-01       4.398141697097e+02 
       4.560150430216e-01       4.178213931415e+02 
       4.760367029325e-01       3.962454507351e+02 
       4.981103775195e-01       3.749891929482e+02 
       5.228068786296e-01       3.538253466182e+02 
       5.509774203239e-01       3.325402767578e+02 
       5.839600992907e-01       3.107994514896e+02 
       6.239999099449e-01       2.881269357615e+02 
       6.751736934113e-01       2.637791615740e+02 
       7.455649041767e-01       2.365915047073e+02 
       8.521298802904e-01       2.049612472358e+02 
       1.024951684679e+00       1.684839833231e+02 
       1.281186630656e+00       1.324644361377e+02 
       1.612556216679e+00       1.019000159303e+02 
       2.030084970654e+00       7.646802572435e+01 
       2.555725553416e+00       5.554633352662e+01 
       3.217467844766e+00       3.887201860374e+01 
       4.050552031406e+00       2.620213644694e+01 
       5.099342884132e+00       1.707946913882e+01 
       6.419692340286e+00       1.082842703593e+01 
       8.081913823086e+00       6.716157716473e+00 
       1.017452668781e+01       4.095862176567e+00 
