# Matter power spectrum P(k) at redshift z=2.5
# for k=2.05161e-07 to 10.2968 h/Mpc,
# number of wavenumbers equal to 139
#    1:k (h/Mpc)              2:P (Mpc/h)^3        
       2.051611436603e-07       1.717319510585e-01 
       2.582825772667e-07       2.142156044279e-01 
       3.251584999447e-07       2.672090129965e-01 
       4.093502984412e-07       3.333121168711e-01 
       5.153414930332e-07       4.157680381719e-01 
       6.487765013314e-07       5.186221937609e-01 
       8.167612241011e-07       6.469207691623e-01 
       1.028241460389e-06       8.069582915485e-01 
       1.294479303944e-06       1.006586448080e+00 
       1.629652890777e-06       1.255599298906e+00 
       2.051611436603e-06       1.566213782969e+00 
       2.582825772667e-06       1.953669088407e+00 
       3.251584999447e-06       2.436974288529e+00 
       4.093502984412e-06       3.039840910921e+00 
       5.153414930332e-06       3.791846170246e+00 
       6.487765013314e-06       4.729883895886e+00 
       8.167612241011e-06       5.899974240502e+00 
       1.028241460389e-05       7.359520808991e+00 
       1.294479303944e-05       9.180125566758e+00 
       1.629652890777e-05       1.145109901464e+01 
       2.051611436603e-05       1.428383646247e+01 
       2.582825772667e-05       1.781727253828e+01 
       3.251584999447e-05       2.222467633571e+01 
       4.093502984412e-05       2.772211037909e+01 
       5.153414930332e-05       3.457894822635e+01 
       6.487765013314e-05       4.313092696570e+01 
       8.167612241011e-05       5.379629663211e+01 
       1.028241460389e-04       6.709570487193e+01 
       1.294479303944e-04       8.367649113079e+01 
       1.629652890777e-04       1.043419953412e+02 
       2.051611436603e-04       1.300861871557e+02 
       2.582825772667e-04       1.621331622208e+02 
       3.251584999447e-04       2.019794465049e+02 
       4.093502984412e-04       2.514340416523e+02 
       5.153414930332e-04       3.126462054478e+02 
       6.487765013314e-04       3.881043732293e+02 
       8.167612241011e-04       4.805842431332e+02 
       1.028241460389e-03       5.930264415307e+02 
       1.294479303944e-03       7.283358967193e+02 
       1.629652890777e-03       8.890811547469e+02 
       2.051611436603e-03       1.076973308679e+03 
       2.582825772667e-03       1.291995387018e+03 
       3.251584999447e-03       1.531407311397e+03 
       4.093502984412e-03       1.788740255823e+03 
       5.153414930332e-03       2.052816528680e+03 
       6.487765013314e-03       2.307199190392e+03 
       8.167612241011e-03       2.530361652486e+03 
       1.028241460389e-02       2.696711584513e+03 
       1.294479303944e-02       2.778722867745e+03 
       1.629652890777e-02       2.750617649801e+03 
       2.051611436298e-02       2.594877105387e+03 
       2.582825145133e-02       2.313341628112e+03 
       3.251389007618e-02       1.941453825574e+03 
       4.080410882964e-02       1.556604720550e+03 
       4.937858941552e-02       1.275641148859e+03 
       5.562942180569e-02       1.128919962090e+03 
       6.047003398229e-02       1.036145532077e+03 
       6.464890697807e-02       9.646424863350e+02 
       6.847302634073e-02       9.032975594866e+02 
       7.209225244136e-02       8.475159575758e+02 
       7.559140896427e-02       7.952585733974e+02 
       7.902388259995e-02       7.456952416432e+02 
       8.242606083394e-02       6.986263012511e+02 
       8.582435881966e-02       6.541796167747e+02 
       8.923897570629e-02       6.126248077195e+02 
       9.268605351851e-02       5.742467623917e+02 
       9.617899122195e-02       5.392569428700e+02 
       9.972928254866e-02       5.077335314459e+02 
       1.033470708919e-01       4.795870629273e+02 
       1.070415285469e-01       4.545494838601e+02 
       1.108211227139e-01       4.321859710558e+02 
       1.146938060746e-01       4.119291416093e+02 
       1.186671556609e-01       3.931345102677e+02 
       1.227484753651e-01       3.751544479607e+02 
       1.269448723105e-01       3.574232016864e+02 
       1.312633140750e-01       3.395397459955e+02 
       1.357106716825e-01       3.213304525053e+02 
       1.402937519237e-01       3.028725296479e+02 
       1.450193216669e-01       2.844660985503e+02 
       1.498941262250e-01       2.665549961363e+02 
       1.549249034459e-01       2.496127251091e+02 
       1.601183949302e-01       2.340214406330e+02 
       1.654813556090e-01       2.199755214624e+02 
       1.710205628022e-01       2.074349119132e+02 
       1.767428258100e-01       1.961415870839e+02 
       1.826549970446e-01       1.856973030227e+02 
       1.887639856842e-01       1.756842281645e+02 
       1.950767748108e-01       1.657928604454e+02 
       2.016004429840e-01       1.559115556335e+02 
       2.083421911938e-01       1.461392592836e+02 
       2.153093761358e-01       1.367133872859e+02 
       2.225095507575e-01       1.278849432163e+02 
       2.299505130530e-01       1.197999361868e+02 
       2.376403641279e-01       1.124418508956e+02 
       2.455875766438e-01       1.056581531159e+02 
       2.538010748810e-01       9.925111736021e+01 
       2.622903278623e-01       9.308027180840e+01 
       2.710654572599e-01       8.711773469056e+01 
       2.801373622077e-01       8.142792500752e+01 
       2.895178636755e-01       7.609380723036e+01 
       2.992198717858e-01       7.114668988661e+01 
       3.092575804052e-01       6.654753319107e+01 
       3.196466946132e-01       6.222371538694e+01 
       3.304046983176e-01       5.812235076068e+01 
       3.415511715128e-01       5.423405390575e+01 
       3.531081696431e-01       5.057375567879e+01 
       3.651006815384e-01       4.714620132006e+01 
       3.775571878563e-01       4.393249865025e+01 
       3.905103495041e-01       4.090512966594e+01 
       4.039978660825e-01       3.804738235784e+01 
       4.180635594117e-01       3.535446709092e+01 
       4.327587589084e-01       3.282088538582e+01 
       4.481440975149e-01       3.043422284969e+01 
       4.642918747765e-01       2.818111692219e+01 
       4.812892170332e-01       2.605265876216e+01 
       4.992423797163e-01       2.404160564407e+01 
       5.182827217815e-01       2.213880836799e+01 
       5.385751886041e-01       2.033485168026e+01 
       5.603306631404e-01       1.862139734991e+01 
       5.838244726242e-01       1.698996562735e+01 
       6.094250495015e-01       1.543090350604e+01 
       6.376400527471e-01       1.393480441462e+01 
       6.691939922930e-01       1.249095497147e+01 
       7.051659621389e-01       1.108706774142e+01 
       7.472497271567e-01       9.708477743811e+00 
       7.982817284210e-01       8.337231130301e+00 
       8.634014783173e-01       6.950562504855e+00 
       9.527770631383e-01       5.521423459886e+00 
       1.087735624047e+00       4.038516276239e+00 
       1.306537720327e+00       2.606259138354e+00 
       1.632351354662e+00       1.519108468363e+00 
       2.054494169040e+00       8.627836637877e-01 
       2.586450432334e+00       4.860906635324e-01 
       3.256148169002e+00       2.720156902982e-01 
       4.099247674523e+00       1.512860187711e-01 
       5.160647066695e+00       8.366917087405e-02 
       6.496869733564e+00       4.603622929692e-02 
       8.179074404700e+00       2.521068675658e-02 
       1.029684461303e+01       1.374616987888e-02 
