# Matter power spectrum P(k) at redshift z=1
# for k=2.09431e-07 to 10.5075 h/Mpc,
# number of wavenumbers equal to 139
#    1:k (h/Mpc)              2:P (Mpc/h)^3        
       2.094311260887e-07       6.100473864121e-01 
       2.636581666537e-07       7.560901330819e-01 
       3.319259660274e-07       9.370948912195e-01 
       4.178700334662e-07       1.161431417197e+00 
       5.260672039579e-07       1.439473150975e+00 
       6.622793713741e-07       1.784076889439e+00 
       8.337603303300e-07       2.211177290511e+00 
       1.049642067198e-06       2.740523698907e+00 
       1.321421071684e-06       3.396593363407e+00 
       1.663570566823e-06       4.209723272379e+00 
       2.094311260887e-06       5.217512940902e+00 
       2.636581666537e-06       6.466563011218e+00 
       3.319259660274e-06       8.014630046663e+00 
       4.178700334662e-06       9.933297143290e+00 
       5.260672039579e-06       1.231128380238e+01 
       6.622793713741e-06       1.525854804224e+01 
       8.337603303300e-06       1.891137027195e+01 
       1.049642067198e-05       2.343865371151e+01 
       1.321421071684e-05       2.904973208683e+01 
       1.663570566823e-05       3.600404447255e+01 
       2.094311260887e-05       4.462312233241e+01 
       2.636581666537e-05       5.530543854867e+01 
       3.319259660274e-05       6.854479617588e+01 
       4.178700334662e-05       8.495308983698e+01 
       5.260672039579e-05       1.052884581561e+02 
       6.622793713741e-05       1.304900622208e+02 
       8.337603303300e-05       1.617209677664e+02 
       1.049642067198e-04       2.004208597251e+02 
       1.321421071684e-04       2.483705337922e+02 
       1.663570566823e-04       3.077701987128e+02 
       2.094311260887e-04       3.813334072520e+02 
       2.636581666537e-04       4.723975984140e+02 
       3.319259660274e-04       5.850502862596e+02 
       4.178700334662e-04       7.242662724426e+02 
       5.260672039579e-04       8.960455711341e+02 
       6.622793713741e-04       1.107534860593e+03 
       8.337603303300e-04       1.367109381275e+03 
       1.049642067198e-03       1.684384340174e+03 
       1.321421071684e-03       2.070088410883e+03 
       1.663570566823e-03       2.535634201838e+03 
       2.094311260887e-03       3.092176335246e+03 
       2.636581666537e-03       3.749050908220e+03 
       3.319259660274e-03       4.511439490846e+03 
       4.178700334662e-03       5.377022667158e+03 
       5.260672039579e-03       6.320085798247e+03 
       6.622793713741e-03       7.325664120704e+03 
       8.337603303300e-03       8.328619913809e+03 
       1.049642067198e-02       9.239648560477e+03 
       1.321421071684e-02       9.933034623595e+03 
       1.663570566811e-02       1.025186654194e+04 
       2.094311207751e-02       1.003944275355e+04 
       2.636551634964e-02       9.219459563778e+03 
       3.315998052284e-02       7.925290310040e+03 
       4.091870028659e-02       6.644005137775e+03 
       4.708055487490e-02       5.919183121299e+03 
       5.163280472348e-02       5.530177160321e+03 
       5.544844381032e-02       5.269703887644e+03 
       5.888484766832e-02       5.064664035079e+03 
       6.210613189630e-02       4.882868226537e+03 
       6.520115034708e-02       4.707580577656e+03 
       6.822405273723e-02       4.529644138971e+03 
       7.121084705107e-02       4.344493031452e+03 
       7.418715928393e-02       4.150788922570e+03 
       7.717226338124e-02       3.949634667335e+03 
       8.018134577352e-02       3.743973641529e+03 
       8.322685917875e-02       3.538020165144e+03 
       8.631937322950e-02       3.336673887465e+03 
       8.946813110541e-02       3.144925354703e+03 
       9.268142619302e-02       2.967287943926e+03 
       9.596686412044e-02       2.807298480691e+03 
       9.933154924294e-02       2.667123347748e+03 
       1.027822198177e-01       2.547293339388e+03 
       1.063253473940e-01       2.446580032817e+03 
       1.099672106600e-01       2.362027555044e+03 
       1.137139506880e-01       2.289166739845e+03 
       1.175716124147e-01       2.222450734825e+03 
       1.215461758228e-01       2.155942963854e+03 
       1.256435793871e-01       2.084234180376e+03 
       1.298697377476e-01       2.003464983045e+03 
       1.342305551727e-01       1.912215985611e+03 
       1.387319361114e-01       1.811965037978e+03 
       1.433797939556e-01       1.706870223559e+03 
       1.481800590248e-01       1.602830170236e+03 
       1.531386867113e-01       1.506033068223e+03 
       1.582616666806e-01       1.421395959606e+03 
       1.635550339923e-01       1.351319359859e+03 
       1.690248829904e-01       1.295058359468e+03 
       1.746773847996e-01       1.248863704698e+03 
       1.805188092552e-01       1.206951673832e+03 
       1.865555520932e-01       1.163232959623e+03 
       1.927941682280e-01       1.113416881621e+03 
       1.992414119648e-01       1.056683849276e+03 
       2.059042850247e-01       9.960000124398e+02 
       2.127900933240e-01       9.367028456684e+02 
       2.199065135514e-01       8.839758780511e+02 
       2.272616707365e-01       8.404810428778e+02 
       2.348642282273e-01       8.052619310124e+02 
       2.427234918055e-01       7.743841749091e+02 
       2.508495300932e-01       7.430920083296e+02 
       2.592533139763e-01       7.085041881215e+02 
       2.679468785342e-01       6.712192021287e+02 
       2.769435119722e-01       6.345764305364e+02 
       2.862579773860e-01       6.020346586053e+02 
       2.959067749550e-01       5.746697724841e+02 
       3.059084545194e-01       5.506298867673e+02 
       3.162839916619e-01       5.268791592856e+02 
       3.270572447201e-01       5.018253402779e+02 
       3.382555160739e-01       4.764875810339e+02 
       3.499102493000e-01       4.530510239322e+02 
       3.620579054501e-01       4.324028363188e+02 
       3.747410784697e-01       4.133524954921e+02 
       3.880099342831e-01       3.942876607213e+02 
       4.019240945801e-01       3.751344335504e+02 
       4.165551418555e-01       3.570439086039e+02 
       4.319900085964e-01       3.404205517006e+02 
       4.483356511577e-01       3.244050577071e+02 
       4.657256344493e-01       3.084738488610e+02 
       4.843296347903e-01       2.931269343823e+02 
       5.043675352400e-01       2.785029296590e+02 
       5.261310009383e-01       2.640713520272e+02 
       5.500177287597e-01       2.498374594888e+02 
       5.765881778617e-01       2.358527291794e+02 
       6.066643519812e-01       2.217768147707e+02 
       6.415122451933e-01       2.075274224929e+02 
       6.832028887954e-01       1.927591440208e+02 
       7.353847105600e-01       1.770695835379e+02 
       8.050651345025e-01       1.597650950921e+02 
       9.067893107205e-01       1.398195153227e+02 
       1.069468469745e+00       1.163355366130e+02 
       1.324086525572e+00       9.136257226901e+01 
       1.665352375760e+00       6.960858394707e+01 
       2.096531035562e+00       5.188852016088e+01 
       2.639376131970e+00       3.765021921216e+01 
       3.322777683796e+00       2.647833804355e+01 
       4.183129263873e+00       1.801419007639e+01 
       5.266247731110e+00       1.186977053223e+01 
       6.629813093497e+00       7.602855517272e+00 
       8.346440178850e+00       4.756147986401e+00 
       1.050754563917e+01       2.919365479694e+00 
