# Matter power spectrum P(k) at redshift z=0.5
# for k=2.04038e-07 to 10.2367 h/Mpc,
# number of wavenumbers equal to 139
#    1:k (h/Mpc)              2:P (Mpc/h)^3        
       2.040384687413e-07       8.143812706665e-01 
       2.568692132820e-07       1.014653544425e+00 
       3.233791801082e-07       1.264176684651e+00 
       4.071102674834e-07       1.575062441670e+00 
       5.125214611372e-07       1.962401081296e+00 
       6.452262915155e-07       2.444993859302e+00 
       8.122917747466e-07       3.046265625615e+00 
       1.022614757020e-06       3.795401853944e+00 
       1.287395704088e-06       4.728765287028e+00 
       1.620735166911e-06       5.891660958797e+00 
       2.040384687413e-06       7.340535260474e+00 
       2.568692132820e-06       9.145715782386e+00 
       3.233791801082e-06       1.139482490258e+01 
       4.071102674834e-06       1.419703277615e+01 
       5.125214611372e-06       1.768835608134e+01 
       6.452262915155e-06       2.203825956708e+01 
       8.122917747466e-06       2.745788052801e+01 
       1.022614757020e-05       3.421027480165e+01 
       1.287395704088e-05       4.262318041095e+01 
       1.620735166911e-05       5.310491601746e+01 
       2.040384687413e-05       6.616418113976e+01 
       2.568692132820e-05       8.243470994358e+01 
       3.233791801082e-05       1.027059568727e+02 
       4.071102674834e-05       1.279612673777e+02 
       5.125214611372e-05       1.594253151584e+02 
       6.452262915155e-05       1.986229680626e+02 
       8.122917747466e-05       2.474521647519e+02 
       1.022614757020e-04       3.082738011818e+02 
       1.287395704088e-04       3.840219446501e+02 
       1.620735166911e-04       4.783377137074e+02 
       2.040384687413e-04       5.957295112805e+02 
       2.568692132820e-04       7.417603405698e+02 
       3.233791801082e-04       9.232587553436e+02 
       4.071102674834e-04       1.148542695262e+03 
       5.125214611372e-04       1.427635130264e+03 
       6.452262915155e-04       1.772439540883e+03 
       8.122917747466e-04       2.196833535212e+03 
       1.022614757020e-03       2.716611524276e+03 
       1.287395704088e-03       3.349104125234e+03 
       1.620735166911e-03       4.112157217213e+03 
       2.040384687413e-03       5.022239327656e+03 
       2.568692132820e-03       6.091453391772e+03 
       3.233791801082e-03       7.323142819600e+03 
       4.071102674834e-03       8.706193214702e+03 
       5.125214611372e-03       1.020748637570e+04 
       6.452262915155e-03       1.173382766447e+04 
       8.122917747466e-03       1.322887554345e+04 
       1.022614757020e-02       1.452120652196e+04 
       1.287395704088e-02       1.540997954881e+04 
       1.620735166909e-02       1.565799050584e+04 
       2.040384672992e-02       1.504491055667e+04 
       2.568680813626e-02       1.349199584737e+04 
       3.232185469496e-02       1.125024389814e+04 
       4.016433395016e-02       9.067060566159e+03 
       4.682459172114e-02       7.829854327151e+03 
       5.164641620129e-02       7.226182414583e+03 
       5.561492477142e-02       6.848987489049e+03 
       5.915456980354e-02       6.562577838133e+03 
       6.245390213118e-02       6.311395046750e+03 
       6.561244260882e-02       6.068133301504e+03 
       6.868974626170e-02       5.818695420359e+03 
       7.172487423508e-02       5.556707944399e+03 
       7.474532287359e-02       5.281051936323e+03 
       7.777158644802e-02       4.994431290008e+03 
       8.081968912690e-02       4.702275744983e+03 
       8.390268366307e-02       4.411724015671e+03 
       8.703158549246e-02       4.130622261013e+03 
       9.021597995557e-02       3.866564859623e+03 
       9.346443094739e-02       3.626039855418e+03 
       9.678476392556e-02       3.413742650696e+03 
       1.001842665808e-01       3.232097231228e+03 
       1.036698338669e-01       3.080994156847e+03 
       1.072480743982e-01       2.957736698044e+03 
       1.109253893786e-01       2.857197459730e+03 
       1.147080315915e-01       2.772219523475e+03 
       1.186021496727e-01       2.694327727007e+03 
       1.226138213887e-01       2.614799844000e+03 
       1.267490786562e-01       2.526051261079e+03 
       1.310139263869e-01       2.423116858365e+03 
       1.354143568026e-01       2.304838470448e+03 
       1.399563605772e-01       2.174304966147e+03 
       1.446459359728e-01       2.038238640449e+03 
       1.494890970101e-01       1.905369876451e+03 
       1.544918816376e-01       1.784232996214e+03 
       1.596603608137e-01       1.681030794826e+03 
       1.650006493838e-01       1.598137654397e+03 
       1.705189196156e-01       1.533550673223e+03 
       1.762214182450e-01       1.481385439247e+03 
       1.821144878726e-01       1.433432799321e+03 
       1.882045935485e-01       1.381641071843e+03 
       1.944983553866e-01       1.320927310331e+03 
       2.010025880606e-01       1.251145513286e+03 
       2.077243480673e-01       1.177021211339e+03 
       2.146709896974e-01       1.105823362382e+03 
       2.218502307522e-01       1.043911503684e+03 
       2.292702291844e-01       9.939209823279e+02 
       2.369396720565e-01       9.538388322066e+02 
       2.448678785078e-01       9.182781969529e+02 
       2.530649188272e-01       8.814396039532e+02 
       2.615417522853e-01       8.403653767283e+02 
       2.703103871105e-01       7.964490325277e+02 
       2.793840669708e-01       7.539827318737e+02 
       2.887774896091e-01       7.168006364250e+02 
       2.985070649851e-01       6.856036769806e+02 
       3.085912225495e-01       6.578488393229e+02 
       3.190507803234e-01       6.301173526761e+02 
       3.299093925907e-01       6.010085103014e+02 
       3.411940986825e-01       5.719712465647e+02 
       3.529360032154e-01       5.453269968504e+02 
       3.651711292661e-01       5.217061841240e+02 
       3.779415018986e-01       4.996537887025e+02 
       3.912965426787e-01       4.776108200160e+02 
       4.052948902908e-01       4.557045923939e+02 
       4.200068145973e-01       4.350703142094e+02 
       4.355174723723e-01       4.159291223892e+02 
       4.519313813116e-01       3.974061340401e+02 
       4.693786982272e-01       3.791006931278e+02 
       4.880242390566e-01       3.614675613450e+02 
       5.080807896962e-01       3.445368859946e+02 
       5.298293607781e-01       3.278363565913e+02 
       5.536511215574e-01       3.113625371127e+02 
       5.800798722162e-01       2.950909059393e+02 
       6.098925524869e-01       2.787025782057e+02 
       6.442745551880e-01       2.620476307333e+02 
       6.851426617832e-01       2.447488047423e+02 
       7.358261554965e-01       2.263170189549e+02 
       8.026195000034e-01       2.059320791238e+02 
       8.984527290068e-01       1.823116143613e+02 
       1.049778440017e+00       1.539913550052e+02 
       1.291043015082e+00       1.223177293606e+02 
       1.622457726719e+00       9.346207999153e+01 
       2.042497288924e+00       6.968137592371e+01 
       2.571351525660e+00       5.050731049489e+01 
       3.237139778192e+00       3.546209610480e+01 
       4.075317528295e+00       2.409416020038e+01 
       5.130520797501e+00       1.587316251014e+01 
       6.458943007713e+00       1.017946827510e+01 
       8.131327485740e+00       6.383375885422e+00 
       1.023673480342e+01       3.931242110083e+00 
