# Matter power spectrum P(k) at redshift z=0
# for k=1.73887e-07 to 10.9863 h/Mpc,
# number of wavenumbers equal to 140
#    1:k (h/Mpc)              2:P (Mpc/h)^3        
       1.738868854803e-07       2.966664142815e+00 
       2.189106189089e-07       3.675855087872e+00 
       2.755921410560e-07       4.554580488064e+00 
       3.469499496662e-07       5.643368116047e+00 
       4.367841082555e-07       6.992434040732e+00 
       5.498786133507e-07       8.663998642639e+00 
       6.922561597493e-07       1.073515627869e+01 
       8.714988709794e-07       1.330143094318e+01 
       1.097152075026e-06       1.648118190935e+01 
       1.381232627853e-06       2.042106253079e+01 
       1.738868854803e-06       2.530278394046e+01 
       2.189106189089e-06       3.135149554319e+01 
       2.755921410560e-06       3.884616871416e+01 
       3.469499496662e-06       4.813246240044e+01 
       4.367841082555e-06       5.963866359535e+01 
       5.498786133507e-06       7.389543707989e+01 
       6.922561597493e-06       9.156029372843e+01 
       8.714988709794e-06       1.134479027969e+02 
       1.097152075026e-05       1.405676401936e+02 
       1.381232627853e-05       1.741700925296e+02 
       1.738868854803e-05       2.158046384738e+02 
       2.189106189089e-05       2.673907172364e+02 
       2.755921410560e-05       3.313059812691e+02 
       3.469499496662e-05       4.104952227279e+02 
       4.367841082555e-05       5.086047527872e+02 
       5.498786133507e-05       6.301477582130e+02 
       6.922561597493e-05       7.807069512757e+02 
       8.714988709794e-05       9.671813214282e+02 
       1.097152075026e-04       1.198083494621e+03 
       1.381232627853e-04       1.483892172703e+03 
       1.738868854803e-04       1.837458746270e+03 
       2.189106189089e-04       2.274456005956e+03 
       2.755921410560e-04       2.813837137968e+03 
       3.469499496662e-04       3.478244025253e+03 
       4.367841082555e-04       4.294271142461e+03 
       5.498786133507e-04       5.292468011431e+03 
       6.922561597493e-04       6.506935379893e+03 
       8.714988709794e-04       7.974211429867e+03 
       1.097152075026e-03       9.730743111724e+03 
       1.381232627853e-03       1.180818624998e+04 
       1.738868854803e-03       1.422628620500e+04 
       2.189106189089e-03       1.698269760512e+04 
       2.755921410560e-03       2.004055371931e+04 
       3.469499496662e-03       2.331509728094e+04 
       4.367841082555e-03       2.665830593615e+04 
       5.498786133507e-03       2.980510510819e+04 
       6.922561597493e-03       3.251972783860e+04 
       8.714988709794e-03       3.438537504491e+04 
       1.097152075026e-02       3.494975049847e+04 
       1.381232627853e-02       3.374875801469e+04 
       1.738868853491e-02       3.045036522525e+04 
       2.189104379350e-02       2.515073480360e+04 
       2.755514649115e-02       1.876055884713e+04 
       3.448859347827e-02       1.312413006427e+04 
       4.113343948437e-02       1.013285080313e+04 
       4.589187861612e-02       9.029148255646e+03 
       4.967587320194e-02       8.517809460657e+03 
       5.299010919175e-02       8.204434084256e+03 
       5.604744895521e-02       7.947496109414e+03 
       5.895531028656e-02       7.682088204263e+03 
       6.177594892866e-02       7.376297044037e+03 
       6.454923503233e-02       7.017144328966e+03 
       6.730271299932e-02       6.604737290410e+03 
       7.005659931861e-02       6.148832292224e+03 
       7.282649655885e-02       5.665945587310e+03 
       7.562497254824e-02       5.176458005192e+03 
       7.846253115659e-02       4.701710521339e+03 
       8.134823627423e-02       4.261342461729e+03 
       8.429012784021e-02       3.871182642608e+03 
       8.729550774716e-02       3.541914070724e+03 
       9.037114128904e-02       3.278543329214e+03 
       9.352340201633e-02       3.080495792481e+03 
       9.675837759082e-02       2.942033895673e+03 
       1.000819480901e-01       2.852745234645e+03 
       1.034998444262e-01       2.798077511098e+03 
       1.070176921503e-01       2.760206697890e+03 
       1.106410443714e-01       2.719705487703e+03 
       1.143754065043e-01       2.658319545554e+03 
       1.182262548922e-01       2.562597696669e+03 
       1.221990509025e-01       2.427370818711e+03 
       1.262992517960e-01       2.257603776236e+03 
       1.305323194760e-01       2.067431046471e+03 
       1.349037280932e-01       1.876310286511e+03 
       1.394189714016e-01       1.703620008538e+03 
       1.440835707091e-01       1.563736402113e+03 
       1.489030842336e-01       1.463096215705e+03 
       1.538831186561e-01       1.399462088918e+03 
       1.590293436488e-01       1.362775963034e+03 
       1.643475101462e-01       1.337336161127e+03 
       1.698434731231e-01       1.305777662697e+03 
       1.755232196446e-01       1.254834739447e+03 
       1.813929029589e-01       1.180800439719e+03 
       1.874588834294e-01       1.091151447608e+03 
       1.937277771465e-01       1.000524636712e+03 
       2.002065131333e-01       9.232742849600e+02 
       2.069024001773e-01       8.671009291750e+02 
       2.138232044945e-01       8.305920755507e+02 
       2.209772396772e-01       8.047440500284e+02 
       2.283734707194e-01       7.776559985686e+02 
       2.360216343745e-01       7.410436249241e+02 
       2.439323787167e-01       6.950206467934e+02 
       2.521174255989e-01       6.471134479711e+02 
       2.605897607781e-01       6.060100078080e+02 
       2.693638579146e-01       5.753369505251e+02 
       2.784559445533e-01       5.519314040268e+02 
       2.878843207460e-01       5.291280099302e+02 
       2.976697444167e-01       5.025072718893e+02 
       3.078359022853e-01       4.733324507188e+02 
       3.184099916839e-01       4.462562631343e+02 
       3.294234477624e-01       4.239997981575e+02 
       3.409128636406e-01       4.049164730275e+02 
       3.529211700085e-01       3.856199334755e+02 
       3.654991686454e-01       3.652080166282e+02 
       3.787075564464e-01       3.456987438969e+02 
       3.926196413466e-01       3.284753118001e+02 
       4.073250536273e-01       3.123868684447e+02 
       4.229349212075e-01       2.961217207949e+02 
       4.395892524877e-01       2.802833540623e+02 
       4.574677434424e-01       2.655380334937e+02 
       4.768060703043e-01       2.511724856284e+02 
       4.979213013356e-01       2.369242243010e+02 
       5.212531294060e-01       2.231259132848e+02 
       5.474339465996e-01       2.093869175843e+02 
       5.774146159032e-01       1.956024983846e+02 
       6.127051904206e-01       1.815545658748e+02 
       6.558711431834e-01       1.669130934999e+02 
       7.116407928573e-01       1.511752227286e+02 
       7.895228594599e-01       1.335833813633e+02 
       9.094082899167e-01       1.132176714673e+02 
       1.103602742840e+00       9.051350131702e+01 
       1.383236092925e+00       6.961243266892e+01 
       1.741205378453e+00       5.286759348124e+01 
       2.192046526945e+00       3.961892978832e+01 
       2.759623075441e+00       2.916498383672e+01 
       3.474159616646e+00       2.100928468070e+01 
       4.373707826025e+00       1.476701777946e+01 
       5.506171925945e+00       1.011214768432e+01 
       6.931859759280e+00       6.748621225098e+00 
       8.726694401951e+00       4.398314804732e+00 
       1.098625734358e+01       2.807555113137e+00 
