# Matter power spectrum P(k) at redshift z=1
# for k=1.70763e-07 to 10.7892 h/Mpc,
# number of wavenumbers equal to 140
#    1:k (h/Mpc)              2:P (Mpc/h)^3        
       1.707632169140e-07       7.552874405905e-01 
       2.149781531727e-07       9.421331009221e-01 
       2.706414600097e-07       1.175201296447e+00 
       3.407174114913e-07       1.465926719502e+00 
       4.289378075671e-07       1.828572815844e+00 
       5.400007060255e-07       2.280931571059e+00 
       6.798206112023e-07       2.845196411147e+00 
       8.558434429040e-07       3.549051043298e+00 
       1.077443058789e-06       4.427027654519e+00 
       1.356420446471e-06       5.522201099352e+00 
       1.707632169140e-06       6.888302190808e+00 
       2.149781531727e-06       8.592353757909e+00 
       2.706414600097e-06       1.071795877319e+01 
       3.407174114913e-06       1.336940181318e+01 
       4.289378075671e-06       1.667676495879e+01 
       5.400007060255e-06       2.080230891298e+01 
       6.798206112023e-06       2.594843195382e+01 
       8.558434429040e-06       3.236759633921e+01 
       1.077443058789e-05       4.037470742004e+01 
       1.356420446471e-05       5.036254940696e+01 
       1.707632169140e-05       6.282102834209e+01 
       2.149781531727e-05       7.836115301058e+01 
       2.706414600097e-05       9.774490402859e+01 
       3.407174114913e-05       1.219224045408e+02 
       4.289378075671e-05       1.520781136256e+02 
       5.400007060255e-05       1.896881070023e+02 
       6.798206112023e-05       2.365908584167e+02 
       8.558434429040e-05       2.950742182116e+02 
       1.077443058789e-04       3.679813448506e+02 
       1.356420446471e-04       4.588378722593e+02 
       1.707632169140e-04       5.720010132599e+02 
       2.149781531727e-04       7.128276345576e+02 
       2.706414600097e-04       8.878511826381e+02 
       3.407174114913e-04       1.104945308270e+03 
       4.289378075671e-04       1.373435539502e+03 
       5.400007060255e-04       1.704105091663e+03 
       6.798206112023e-04       2.109037747832e+03 
       8.558434429040e-04       2.601239608501e+03 
       1.077443058789e-03       3.193889074731e+03 
       1.356420446471e-03       3.898812412472e+03 
       1.707632169140e-03       4.723849447161e+03 
       2.149781531727e-03       5.669304078215e+03 
       2.706414600097e-03       6.723527961841e+03 
       3.407174114913e-03       7.858130970938e+03 
       4.289378075671e-03       9.022436508775e+03 
       5.400007060255e-03       1.013924753777e+04 
       6.798206112023e-03       1.110213186525e+04 
       8.558434429040e-03       1.177524709879e+04 
       1.077443058789e-02       1.199824749110e+04 
       1.356420446471e-02       1.160444804158e+04 
       1.707632168182e-02       1.047088514576e+04 
       2.149780108996e-02       8.623878301634e+03 
       2.706074980147e-02       6.380361515634e+03 
       3.389042811447e-02       4.393133744415e+03 
       4.053416713844e-02       3.338013753335e+03 
       4.529916240635e-02       2.964029981607e+03 
       4.907038106841e-02       2.802023457658e+03 
       5.236502664030e-02       2.708955434218e+03 
       5.539995712525e-02       2.634024771095e+03 
       5.828395141091e-02       2.553904077951e+03 
       6.107978517583e-02       2.457051278266e+03 
       6.382753484603e-02       2.338761136877e+03 
       6.655481924367e-02       2.199137596529e+03 
       6.928186879759e-02       2.041890134702e+03 
       7.202427043808e-02       1.873286284868e+03 
       7.479456117082e-02       1.701069665198e+03 
       7.760320593828e-02       1.533356748823e+03 
       8.045922522090e-02       1.377619830626e+03 
       8.337061297072e-02       1.239883798146e+03 
       8.634462353629e-02       1.124227946238e+03 
       8.938797366197e-02       1.032605334812e+03 
       9.250698764270e-02       9.649042325948e+02 
       9.570770334279e-02       9.191230970661e+02 
       9.899595059195e-02       8.915480206467e+02 
       1.023774096577e-01       8.769162063356e+02 
       1.058576550847e-01       8.686818714198e+02 
       1.094421886380e-01       8.595853718206e+02 
       1.131364640699e-01       8.426725516338e+02 
       1.169459057543e-01       8.126880781928e+02 
       1.208759227867e-01       7.674576605926e+02 
       1.249319198453e-01       7.086716925968e+02 
       1.291193059150e-01       6.415820053682e+02 
       1.334435018444e-01       5.735610913776e+02 
       1.379099476248e-01       5.120296579100e+02 
       1.425241102285e-01       4.625547700864e+02 
       1.472914928097e-01       4.277206854513e+02 
       1.522176460540e-01       4.068489217302e+02 
       1.573081824444e-01       3.962942779017e+02 
       1.625687942079e-01       3.901951708924e+02 
       1.680052756982e-01       3.819062817065e+02 
       1.736235509703e-01       3.661873699384e+02 
       1.794297073132e-01       3.413839447100e+02 
       1.854300355255e-01       3.101891854077e+02 
       1.916310777656e-01       2.781910846657e+02 
       1.980396838781e-01       2.510085864895e+02 
       2.046630772135e-01       2.317780163965e+02 
       2.115089311283e-01       2.201354774449e+02 
       2.185854575932e-01       2.127240886084e+02 
       2.259015096701e-01       2.049276271551e+02 
       2.334667000735e-01       1.933887802997e+02 
       2.412915386343e-01       1.779789125390e+02 
       2.493875922872e-01       1.615594036954e+02 
       2.577676722650e-01       1.475930279964e+02 
       2.664460545859e-01       1.376451301578e+02 
       2.754387417844e-01       1.305931347705e+02 
       2.847637763364e-01       1.238240154114e+02 
       2.944416196019e-01       1.154959368986e+02 
       3.044956147184e-01       1.060089915698e+02 
       3.149525582625e-01       9.721260363204e+01 
       3.258434144503e-01       9.028227070834e+01 
       3.372042184178e-01       8.463821226444e+01 
       3.490772336220e-01       7.890911750502e+01 
       3.615124557011e-01       7.266384298121e+01 
       3.745695962142e-01       6.670193451568e+01 
       3.883207428255e-01       6.164250909691e+01 
       4.028539919012e-01       5.705822646278e+01 
       4.182785100863e-01       5.238712406827e+01 
       4.347317485670e-01       4.785938589266e+01 
       4.523899928063e-01       4.378979667125e+01 
       4.714842489430e-01       3.990705426259e+01 
       4.923249888746e-01       3.609278201740e+01 
       5.153422386663e-01       3.251820818746e+01 
       5.411535841416e-01       2.905234885238e+01 
       5.706859659528e-01       2.568208965396e+01 
       6.054081987920e-01       2.238203484527e+01 
       6.478089264176e-01       1.910164167079e+01 
       7.024602692547e-01       1.578284607321e+01 
       7.785297446790e-01       1.236550794963e+01 
       8.952163015126e-01       8.849810109068e+00 
       1.084369297194e+00       5.562284292031e+00 
       1.358456979713e+00       3.198895519590e+00 
       1.709981386686e+00       1.804874096754e+00 
       2.152737582631e+00       1.011121485024e+00 
       2.710136046156e+00       5.629463926756e-01 
       3.411859137925e+00       3.116520073076e-01 
       4.295276170196e+00       1.716385036889e-01 
       5.407432321334e+00       9.407640818446e-02 
       6.807553961885e+00       5.133639850983e-02 
       8.570202674777e+00       2.789874380552e-02 
       1.078924593150e+01       1.510332225970e-02 
