# Matter power spectrum P(k) at redshift z=1.5
# for k=2.24767e-07 to 11.2768 h/Mpc,
# number of wavenumbers equal to 139
#    1:k (h/Mpc)              2:P (Mpc/h)^3        
       2.247670435772e-07       1.708979289468e-01 
       2.829649428932e-07       2.131752590604e-01 
       3.562317572551e-07       2.659113035635e-01 
       4.484692116966e-07       3.316933759270e-01 
       5.645892870121e-07       4.137488481469e-01 
       7.107758006463e-07       5.161034907162e-01 
       8.948137175220e-07       6.437789829731e-01 
       1.126503727810e-06       8.030392842766e-01 
       1.418184169421e-06       1.001697952738e+00 
       1.785388089489e-06       1.249501489385e+00 
       2.247670435772e-06       1.558607513446e+00 
       2.829649428932e-06       1.944181227438e+00 
       3.562317572551e-06       2.425139433922e+00 
       4.484692116966e-06       3.025078598193e+00 
       5.645892870121e-06       3.773432477779e+00 
       7.107758006463e-06       4.706916090979e+00 
       8.948137175220e-06       5.871326819089e+00 
       1.126503727810e-05       7.323790912463e+00 
       1.418184169421e-05       9.135565432866e+00 
       1.785388089489e-05       1.139553273244e+01 
       2.247670435772e-05       1.421455818759e+01 
       2.829649428932e-05       1.773092354959e+01 
       3.562317572551e-05       2.211709964249e+01 
       4.484692116966e-05       2.758818509331e+01 
       5.645892870121e-05       3.441241405183e+01 
       7.107758006463e-05       4.292422665031e+01 
       8.948137175220e-05       5.354050052142e+01 
       1.126503727810e-04       6.678065551445e+01 
       1.418184169421e-04       8.329145310848e+01 
       1.785388089489e-04       1.038773868381e+02 
       2.247670435772e-04       1.295375378298e+02 
       2.829649428932e-04       1.615095346666e+02 
       3.562317572551e-04       2.013206134454e+02 
       4.484692116966e-04       2.508444457363e+02 
       5.645892870121e-04       3.123601296070e+02 
       7.107758006463e-04       3.886066148219e+02 
       8.948137175220e-04       4.828227755645e+02 
       1.126503727810e-03       5.987611635849e+02 
       1.418184169421e-03       7.406562985734e+02 
       1.785388089489e-03       9.130962553683e+02 
       2.247670435772e-03       1.120698289003e+03 
       2.829649428932e-03       1.367526145604e+03 
       3.562317572551e-03       1.656218678663e+03 
       4.484692116966e-03       1.986728458969e+03 
       5.645892870121e-03       2.352156253483e+03 
       7.107758006463e-03       2.745021765710e+03 
       8.948137175220e-03       3.143168295647e+03 
       1.126503727810e-02       3.514052974353e+03 
       1.418184169421e-02       3.811245993980e+03 
       1.785388089479e-02       3.975924733337e+03 
       2.247670389424e-02       3.947463371182e+03 
       2.829621790816e-02       3.691378878560e+03 
       3.559181886654e-02       3.245968393214e+03 
       4.397724503215e-02       2.778414306563e+03 
       5.070594625180e-02       2.499611761253e+03 
       5.565829658235e-02       2.344711959227e+03 
       5.979732476578e-02       2.237568259464e+03 
       6.351924401723e-02       2.150979685871e+03 
       6.700500792086e-02       2.073046862611e+03 
       7.035218428466e-02       1.997669618835e+03 
       7.362005766933e-02       1.921590181688e+03 
       7.684796225943e-02       1.843259787042e+03 
       8.006384117321e-02       1.762312531392e+03 
       8.328867994392e-02       1.679256872940e+03 
       8.653899272529e-02       1.595240808576e+03 
       8.982830619853e-02       1.511834446334e+03 
       9.316809071827e-02       1.430812441932e+03 
       9.656836897472e-02       1.353938014748e+03 
       1.000381274919e-01       1.282759589726e+03 
       1.035856026871e-01       1.218433704917e+03 
       1.072184843315e-01       1.161586702896e+03 
       1.109440629593e-01       1.112224983069e+03 
       1.147693382132e-01       1.069701534123e+03 
       1.187010993254e-01       1.032747907327e+03 
       1.227459853159e-01       9.995835535989e+02 
       1.269105301894e-01       9.681133690962e+02 
       1.312011969102e-01       9.362143986323e+02 
       1.356244029474e-01       9.020871366362e+02 
       1.401865395286e-01       8.646116865102e+02 
       1.448939862992e-01       8.236167127622e+02 
       1.497531227977e-01       7.799638439381e+02 
       1.547703379643e-01       7.353851993504e+02 
       1.599520387786e-01       6.920852053749e+02 
       1.653046590408e-01       6.521992855584e+02 
       1.708346692658e-01       6.172534100614e+02 
       1.765485886252e-01       5.877676613935e+02 
       1.824529998548e-01       5.631068495187e+02 
       1.885545680320e-01       5.416334410765e+02 
       1.948600641174e-01       5.211681184639e+02 
       2.013763941532e-01       4.996824886429e+02 
       2.081106350141e-01       4.760203522978e+02 
       2.150700776225e-01       4.503392697374e+02 
       2.222622785769e-01       4.240119769691e+02 
       2.296951212088e-01       3.989766289355e+02 
       2.373768871892e-01       3.768326772119e+02 
       2.453163399719e-01       3.581218071217e+02 
       2.535228215944e-01       3.421313040921e+02 
       2.620063646944e-01       3.273170436310e+02 
       2.707778220516e-01       3.121663924970e+02 
       2.798490165808e-01       2.960493387544e+02 
       2.892329155182e-01       2.795102189223e+02 
       2.989438336210e-01       2.637671221390e+02 
       3.089976716335e-01       2.497782699304e+02 
       3.194121981625e-01       2.375748271948e+02 
       3.302073856306e-01       2.263419417927e+02 
       3.414058143715e-01       2.151574102959e+02 
       3.530331635346e-01       2.037604295959e+02 
       3.651188138054e-01       1.926508460506e+02 
       3.776965957679e-01       1.824475765090e+02 
       3.908057302090e-01       1.732124369279e+02 
       4.044920245808e-01       1.644644812869e+02 
       4.188094160128e-01       1.558079660933e+02 
       4.338219902479e-01       1.473600554603e+02 
       4.496066651080e-01       1.394393362773e+02 
       4.662568191507e-01       1.320333829512e+02 
       4.838872928306e-01       1.248662377343e+02 
       5.026414296009e-01       1.178706549237e+02 
       5.227012298203e-01       1.111873677323e+02 
       5.443023988465e-01       1.047783116375e+02 
       5.677573579621e-01       9.850646604575e+01 
       5.934917309471e-01       9.239163410110e+01 
       6.221046984348e-01       8.639981503511e+01 
       6.544739234309e-01       8.044069282203e+01 
       6.919489809649e-01       7.446835296087e+01 
       7.367333111773e-01       6.836688891083e+01 
       7.926993789962e-01       6.199474399850e+01 
       8.672654795811e-01       5.512696244555e+01 
       9.758058297377e-01       4.745651414014e+01 
       1.149056501677e+00       3.880959204665e+01 
       1.421170942930e+00       3.009594873307e+01 
       1.787267752415e+00       2.292756604038e+01 
       2.250007545649e+00       1.733866028960e+01 
       2.832591589782e+00       1.293008710760e+01 
       3.566021533577e+00       9.447252557614e+00 
       4.489355127625e+00       6.729297774919e+00 
       5.651763252736e+00       4.656723559628e+00 
       7.115148380314e+00       3.125131963723e+00 
       8.957441104663e+00       2.035040782018e+00 
       1.127675023131e+01       1.289592114668e+00 
