# Matter power spectrum P(k) at redshift z=1
# for k=2.09511e-07 to 10.5111 h/Mpc,
# number of wavenumbers equal to 139
#    1:k (h/Mpc)              2:P (Mpc/h)^3        
       2.095105963443e-07       4.875922122085e-01 
       2.637582137780e-07       6.069134473107e-01 
       3.320519178945e-07       7.554344043140e-01 
       4.180285974724e-07       9.403006993427e-01 
       5.262668242147e-07       1.170406589117e+00 
       6.625306783881e-07       1.456822889763e+00 
       8.340767071160e-07       1.813329613231e+00 
       1.050040361974e-06       2.257078947766e+00 
       1.321922495098e-06       2.809420477969e+00 
       1.664201821502e-06       3.496928347801e+00 
       2.095105963443e-06       4.352679779009e+00 
       2.637582137780e-06       5.417846455391e+00 
       3.320519178945e-06       6.743675324419e+00 
       4.180285974724e-06       8.393954096063e+00 
       5.262668242147e-06       1.044808001474e+01 
       6.625306783881e-06       1.300487947057e+01 
       8.340767071160e-06       1.618736205367e+01 
       1.050040361974e-05       2.014863745907e+01 
       1.321922495098e-05       2.507927929222e+01 
       1.664201821502e-05       3.121648880451e+01 
       2.095105963443e-05       3.885549702368e+01 
       2.637582137780e-05       4.836374899882e+01 
       3.320519178945e-05       6.019854311505e+01 
       4.180285974724e-05       7.492895537880e+01 
       5.262668242147e-05       9.326306662067e+01 
       6.625306783881e-05       1.160817300867e+02 
       8.340767071160e-05       1.444803616902e+02 
       1.050040361974e-04       1.798204852584e+02 
       1.321922495098e-04       2.237929708332e+02 
       1.664201821502e-04       2.784949619577e+02 
       2.095105963443e-04       3.465221966044e+02 
       2.637582137780e-04       4.310774295828e+02 
       3.320519178945e-04       5.360934067024e+02 
       4.180285974724e-04       6.663646517352e+02 
       5.262668242147e-04       8.276758844367e+02 
       6.625306783881e-04       1.026907285123e+03 
       8.340767071160e-04       1.272090864843e+03 
       1.050040361974e-03       1.572385135676e+03 
       1.321922495098e-03       1.937897219987e+03 
       1.664201821502e-03       2.379175618524e+03 
       2.095105963443e-03       2.906158058362e+03 
       2.637582137780e-03       3.526510348788e+03 
       3.320519178945e-03       4.243180347176e+03 
       4.180285974724e-03       5.051129194641e+03 
       5.262668242147e-03       5.924546062324e+03 
       6.625306783881e-03       6.841701677474e+03 
       8.340767071160e-03       7.738943273012e+03 
       1.050040361974e-02       8.530492538602e+03 
       1.321922495098e-02       9.100586923385e+03 
       1.664201821498e-02       9.310425383533e+03 
       2.095105941981e-02       9.027823585804e+03 
       2.637566816688e-02       8.198056663840e+03 
       3.318506577706e-02       6.953117248937e+03 
       4.116403082770e-02       5.719197643767e+03 
       4.780508049905e-02       5.009656375463e+03 
       5.263748156858e-02       4.646681667826e+03 
       5.663626076926e-02       4.410625956665e+03 
       6.021311931885e-02       4.226792406956e+03 
       6.355268263463e-02       4.063967045212e+03 
       6.675312304877e-02       3.906641643090e+03 
       6.987350023481e-02       3.746758341226e+03 
       7.295270492994e-02       3.580642150134e+03 
       7.601820005045e-02       3.407600246583e+03 
       7.909050836292e-02       3.229105710393e+03 
       8.218571184870e-02       3.048175737670e+03 
       8.531693534776e-02       2.868800256306e+03 
       8.849527343422e-02       2.695381153227e+03 
       9.173039409264e-02       2.532192889351e+03 
       9.503094562299e-02       2.382895684693e+03 
       9.840483880747e-02       2.250135309546e+03 
       1.018594471974e-01       2.135253720686e+03 
       1.054017519891e-01       2.038121570777e+03 
       1.090384483772e-01       1.957096759722e+03 
       1.127760244878e-01       1.889119067309e+03 
       1.166208203874e-01       1.829963746918e+03 
       1.205790723769e-01       1.774687030203e+03 
       1.246569462859e-01       1.718278188705e+03 
       1.288605625055e-01       1.656474098571e+03 
       1.331960148463e-01       1.586598741145e+03 
       1.376693848747e-01       1.508204176955e+03 
       1.422867530924e-01       1.423268707702e+03 
       1.470542081351e-01       1.335799808458e+03 
       1.519778550423e-01       1.250879219911e+03 
       1.570638235743e-01       1.173394499345e+03 
       1.623182774994e-01       1.106813562176e+03 
       1.677474257495e-01       1.052324653194e+03 
       1.733575363171e-01       1.008537239386e+03 
       1.791549537577e-01       9.718249565300e+02 
       1.851461211511e-01       9.373178892325e+02 
       1.913376073722e-01       9.004150779465e+02 
       1.977361405239e-01       8.584054423677e+02 
       2.043486483991e-01       8.115028948155e+02 
       2.111823068724e-01       7.626699024954e+02 
       2.182445971812e-01       7.161809268322e+02 
       2.255433731530e-01       6.756130790889e+02 
       2.330869395865e-01       6.422621841463e+02 
       2.408841432140e-01       6.146981534953e+02 
       2.489444779760e-01       5.896338971507e+02 
       2.572782067656e-01       5.637469733377e+02 
       2.658965023645e-01       5.355412938814e+02 
       2.748116110525e-01       5.060606878718e+02 
       2.840370433736e-01       4.778817733211e+02 
       2.935877978655e-01       4.531231958725e+02 
       3.034806253203e-01       4.319800807770e+02 
       3.137343434764e-01       4.128175001200e+02 
       3.243702151895e-01       3.936682600489e+02 
       3.354124073880e-01       3.738786070309e+02 
       3.468885539703e-01       3.544177410419e+02 
       3.588304539403e-01       3.366034858823e+02 
       3.712749475643e-01       3.206615246267e+02 
       3.842650298073e-01       3.056566201536e+02 
       3.978512843393e-01       2.907345987562e+02 
       4.120937571123e-01       2.760671346854e+02 
       4.270644426748e-01       2.623105729068e+02 
       4.428506403671e-01       2.495061701600e+02 
       4.595595709911e-01       2.371165657298e+02 
       4.773248624469e-01       2.249637066838e+02 
       4.963158795783e-01       2.133231604950e+02 
       5.167515121357e-01       2.021615947420e+02 
       5.389211904990e-01       1.912051252360e+02 
       5.632180833096e-01       1.804747423927e+02 
       5.901937696851e-01       1.699293317252e+02 
       6.206527936874e-01       1.593873642228e+02 
       6.558259102922e-01       1.487620920771e+02 
       6.977097556439e-01       1.378314261291e+02 
       7.497861461032e-01       1.263181234787e+02 
       8.186675227440e-01       1.137667152355e+02 
       9.179808376441e-01       9.950143620820e+01 
       1.075414826544e+00       8.289110076580e+01 
       1.325263782984e+00       6.513039589577e+01 
       1.665931432816e+00       4.964752756343e+01 
       2.097238684281e+00       3.720085256925e+01 
       2.640266917214e+00       2.726875623041e+01 
       3.323899115924e+00       1.945855080610e+01 
       4.184541063277e+00       1.347232025579e+01 
       5.268025081255e+00       9.038939796442e+00 
       6.632050644761e+00       5.884951463827e+00 
       8.349257088996e+00       3.731218652387e+00 
       1.051109191894e+01       2.313821293610e+00 
