# Matter power spectrum P(k) at redshift z=2
# for k=2.05171e-07 to 10.2935 h/Mpc,
# number of wavenumbers equal to 139
#    1:k (h/Mpc)              2:P (Mpc/h)^3        
       2.051706877278e-07       2.259613375334e-01 
       2.582945925359e-07       2.818604471188e-01 
       3.251736262724e-07       3.515880746962e-01 
       4.093693413596e-07       4.385651675125e-01 
       5.153654666470e-07       5.470589585850e-01 
       6.488066823231e-07       6.823923238626e-01 
       8.167992197185e-07       8.512049302326e-01 
       1.028289294037e-06       1.061778987762e+00 
       1.294539522939e-06       1.324445586408e+00 
       1.629728702000e-06       1.652091553167e+00 
       2.051706877278e-06       2.060791695120e+00 
       2.582945925359e-06       2.570597443648e+00 
       3.251736262724e-06       3.206520590094e+00 
       4.093693413596e-06       3.999760363271e+00 
       5.153654666470e-06       4.989234033270e+00 
       6.488066823231e-06       6.223486096964e+00 
       8.167992197185e-06       7.763069639926e+00 
       1.028289294037e-05       9.683516553271e+00 
       1.294539522939e-05       1.207904203288e+01 
       1.629728702000e-05       1.506716453935e+01 
       2.051706877278e-05       1.879446670100e+01 
       2.582945925359e-05       2.344377754587e+01 
       3.251736262724e-05       2.924312389974e+01 
       4.093693413596e-05       3.647688122315e+01 
       5.153654666470e-05       4.549965341610e+01 
       6.488066823231e-05       5.675352780552e+01 
       8.167992197185e-05       7.078948371534e+01 
       1.028289294037e-04       8.829387076398e+01 
       1.294539522939e-04       1.101209933874e+02 
       1.629728702000e-04       1.373328893064e+02 
       2.051706877278e-04       1.712472680907e+02 
       2.582945925359e-04       2.134940893806e+02 
       3.251736262724e-04       2.660800818685e+02 
       4.093693413596e-04       3.314581607314e+02 
       5.153654666470e-04       4.125947248515e+02 
       6.488066823231e-04       5.130223242292e+02 
       8.167992197185e-04       6.368599847414e+02 
       1.028289294037e-03       7.887817401204e+02 
       1.294539522939e-03       9.739108663482e+02 
       1.629728702000e-03       1.197579998217e+03 
       2.051706877278e-03       1.464808697472e+03 
       2.582945925359e-03       1.779388708506e+03 
       3.251736262724e-03       2.142644215245e+03 
       4.093693413596e-03       2.551761123646e+03 
       5.153654666470e-03       2.997662249626e+03 
       6.488066823231e-03       3.462633329340e+03 
       8.167992197185e-03       3.917997829055e+03 
       1.028289294037e-02       4.322260740721e+03 
       1.294539522939e-02       4.620891860569e+03 
       1.629728701993e-02       4.750371370522e+03 
       2.051706841567e-02       4.651928198760e+03 
       2.582923678436e-02       4.301794656206e+03 
       3.249120705849e-02       3.755926437449e+03 
       4.018707144971e-02       3.199585576081e+03 
       4.641603205262e-02       2.861941723285e+03 
       5.098703237687e-02       2.668300652456e+03 
       5.479825003117e-02       2.529562879738e+03 
       5.822105393859e-02       2.414619147553e+03 
       6.142429521573e-02       2.310380361433e+03 
       6.449871017316e-02       2.210496331454e+03 
       6.749929923281e-02       2.111842476999e+03 
       7.046248739836e-02       2.013148791515e+03 
       7.341411337779e-02       1.914339557974e+03 
       7.637355882527e-02       1.816136867087e+03 
       7.935606007375e-02       1.719767018039e+03 
       8.237408607751e-02       1.626708648824e+03 
       8.543820213659e-02       1.538465222811e+03 
       8.855763398915e-02       1.456361822699e+03 
       9.174064889898e-02       1.381373149531e+03 
       9.499482041486e-02       1.313992240364e+03 
       9.832721658915e-02       1.254148523042e+03 
       1.017445362899e-01       1.201182143468e+03 
       1.052532093614e-01       1.153882837094e+03 
       1.088594710082e-01       1.110600943105e+03 
       1.125694174278e-01       1.069435743683e+03 
       1.163890475758e-01       1.028494503645e+03 
       1.203242945613e-01       9.861960589071e+02 
       1.243810492529e-01       9.415658093820e+02 
       1.285651780680e-01       8.944479518505e+02 
       1.328825365118e-01       8.455604936186e+02 
       1.373389797659e-01       7.963482488948e+02 
       1.419403714462e-01       7.486468122973e+02 
       1.466925915388e-01       7.042318265875e+02 
       1.516015444464e-01       6.643701256249e+02 
       1.566731680343e-01       6.294917756609e+02 
       1.619134445368e-01       5.990735900292e+02 
       1.673284141653e-01       5.717802662855e+02 
       1.729241922478e-01       5.458548435374e+02 
       1.787069907232e-01       5.196764875833e+02 
       1.846831448068e-01       4.923124649890e+02 
       1.908591456499e-01       4.638364508478e+02 
       1.972416798316e-01       4.352397741303e+02 
       2.038376765494e-01       4.079436709353e+02 
       2.106543634411e-01       3.831317955419e+02 
       2.176993320642e-01       3.612223580506e+02 
       2.249806142070e-01       3.417291649439e+02 
       2.325067704254e-01       3.235751480640e+02 
       2.402869924980e-01       3.057011282021e+02 
       2.483312219118e-01       2.876358438619e+02 
       2.566502870455e-01       2.696764476275e+02 
       2.652560624656e-01       2.525627634655e+02 
       2.741616547336e-01       2.368898184432e+02 
       2.833816204258e-01       2.226943152842e+02 
       2.929322237923e-01       2.095029773630e+02 
       3.028317437865e-01       1.967659869453e+02 
       3.131008432830e-01       1.842905962418e+02 
       3.237630175048e-01       1.722980852270e+02 
       3.348451444470e-01       1.610920420811e+02 
       3.463781681178e-01       1.507113497890e+02 
       3.583979567702e-01       1.409250724281e+02 
       3.709463945936e-01       1.315210372282e+02 
       3.840727891450e-01       1.225079286229e+02 
       3.978357122257e-01       1.139990531116e+02 
       4.123054457239e-01       1.059914791592e+02 
       4.275672875320e-01       9.836907369148e+01 
       4.437261057165e-01       9.107288246087e+01 
       4.609127468669e-01       8.412709019184e+01 
       4.792932719062e-01       7.751522179202e+01 
       4.990826340756e-01       7.117505300063e+01 
       5.205655780382e-01       6.508205933316e+01 
       5.441297471439e-01       5.921398878620e+01 
       5.703203883540e-01       5.352306636574e+01 
       5.999353344603e-01       4.797045667079e+01 
       6.341998389932e-01       4.250262877945e+01 
       6.751112064703e-01       3.705298610311e+01 
       7.261728951094e-01       3.153267243158e+01 
       7.940820853760e-01       2.582533068320e+01 
       8.927003280785e-01       1.982313887277e+01 
       1.049861073763e+00       1.367080853157e+01 
       1.297375163722e+00       8.344975349197e+00 
       1.631427751021e+00       4.843106949643e+00 
       2.053815669338e+00       2.777241196038e+00 
       2.585600644411e+00       1.579170537648e+00 
       3.255078355962e+00       8.911187248475e-01 
       4.097900859702e+00       4.993926558311e-01 
       5.158951527292e+00       2.781118968865e-01 
       6.494735175922e+00       1.539951942671e-01 
       8.176387155842e+00       8.482340792251e-02 
       1.029346156716e+01       4.649765684781e-02 
