# Matter power spectrum P(k) at redshift z=2.5
# for k=2.38599e-07 to 11.9715 h/Mpc,
# number of wavenumbers equal to 139
#    1:k (h/Mpc)              2:P (Mpc/h)^3        
       2.385988813311e-07       7.599924320189e-02 
       3.003781949334e-07       9.480020301091e-02 
       3.781537427505e-07       1.182522102594e-01 
       4.760673563137e-07       1.475058574499e-01 
       5.993332925889e-07       1.839963745704e-01 
       7.545159121745e-07       2.295140437805e-01 
       9.498792554395e-07       2.862920334151e-01 
       1.195827132809e-06       3.571159606386e-01 
       1.505457165606e-06       4.454605577710e-01 
       1.895258282149e-06       5.556601476873e-01 
       2.385988813311e-06       6.931212916052e-01 
       3.003781949334e-06       8.645880406327e-01 
       3.781537427505e-06       1.078472805182e+00 
       4.760673563137e-06       1.345269072922e+00 
       5.993332925889e-06       1.678066217058e+00 
       7.545159121745e-06       2.093191647014e+00 
       9.498792554395e-06       2.611011788337e+00 
       1.195827132809e-05       3.256931154407e+00 
       1.505457165606e-05       4.062638460707e+00 
       1.895258282149e-05       5.067660790476e+00 
       2.385988813311e-05       6.321301797992e+00 
       3.003781949334e-05       7.885058537089e+00 
       3.781537427505e-05       9.835634474641e+00 
       4.760673563137e-05       1.226869453004e+01 
       5.993332925890e-05       1.530354242544e+01 
       7.545159121745e-05       1.908894210966e+01 
       9.498792554395e-05       2.381035351062e+01 
       1.195827132809e-04       2.969890764878e+01 
       1.505457165606e-04       3.704250237924e+01 
       1.895258282149e-04       4.619944800938e+01 
       2.385988813311e-04       5.761510888824e+01 
       3.003781949334e-04       7.184192921355e+01 
       3.781537427505e-04       8.956301943705e+01 
       4.760673563137e-04       1.116189862795e+02 
       5.993332925890e-04       1.390367502559e+02 
       7.545159121745e-04       1.730576022984e+02 
       9.498792554395e-04       2.151599103524e+02 
       1.195827132809e-03       2.670704510911e+02 
       1.505457165606e-03       3.307574521685e+02 
       1.895258282149e-03       4.083924021876e+02 
       2.385988813311e-03       5.022437881689e+02 
       3.003781949334e-03       6.144445072331e+02 
       3.781537427505e-03       7.466218193648e+02 
       4.760673563137e-03       8.993654690426e+02 
       5.993332925890e-03       1.071437976404e+03 
       7.545159121745e-03       1.258730665421e+03 
       9.498792554395e-03       1.452990748115e+03 
       1.195827132809e-02       1.640377935498e+03 
       1.505457165606e-02       1.800278948876e+03 
       1.895258282126e-02       1.905502353699e+03 
       2.385988726167e-02       1.926462740262e+03 
       3.003737139243e-02       1.843298101451e+03 
       3.777031741565e-02       1.667422748729e+03 
       4.649181495137e-02       1.471319361278e+03 
       5.329884633544e-02       1.349762435035e+03 
       5.836282993420e-02       1.277327573322e+03 
       6.262869184185e-02       1.224640191724e+03 
       6.648086109983e-02       1.180715432898e+03 
       7.009760323986e-02       1.140562255675e+03 
       7.357613240582e-02       1.101556069577e+03 
       7.697600216934e-02       1.062266335276e+03 
       8.033697070792e-02       1.021996051243e+03 
       8.368742244941e-02       9.805648952727e+02 
       8.704876210870e-02       9.381809380975e+02 
       9.043789273666e-02       8.953423013633e+02 
       9.386870142451e-02       8.527451851499e+02 
       9.735299498444e-02       8.111894788554e+02 
       1.009011134122e-01       7.714826211757e+02 
       1.045223456598e-01       7.343461765547e+02 
       1.082252192584e-01       7.003308515819e+02 
       1.120177066568e-01       6.697470415128e+02 
       1.159073749136e-01       6.426165374918e+02 
       1.199014958315e-01       6.186515487757e+02 
       1.240071278234e-01       5.972667473911e+02 
       1.282311771737e-01       5.776307849405e+02 
       1.325804440404e-01       5.587622458173e+02 
       1.370616570364e-01       5.396681726681e+02 
       1.416814992332e-01       5.195123330093e+02 
       1.464466277673e-01       4.977837988149e+02 
       1.513636887904e-01       4.744231373952e+02 
       1.564393292124e-01       4.498615935567e+02 
       1.616802064923e-01       4.249441238050e+02 
       1.670929976101e-01       4.007406793368e+02 
       1.726844082740e-01       3.782862733483e+02 
       1.784611833651e-01       3.583167844450e+02 
       1.844301195965e-01       3.410707346913e+02 
       1.905980813385e-01       3.262133428063e+02 
       1.969720205514e-01       3.129159026441e+02 
       2.035590017589e-01       3.000937372225e+02 
       2.103662329904e-01       2.867583200102e+02 
       2.174011036261e-01       2.723745250882e+02 
       2.246712300986e-01       2.570684933470e+02 
       2.321845104424e-01       2.415634056260e+02 
       2.399491887566e-01       2.268442044475e+02 
       2.479739307620e-01       2.137004621336e+02 
       2.562679118074e-01       2.023671842347e+02 
       2.648409189377e-01       1.924375296283e+02 
       2.737034689891e-01       1.830991119536e+02 
       2.828669451667e-01       1.735911730409e+02 
       2.923437552120e-01       1.636353763601e+02 
       3.021475151381e-01       1.535588504934e+02 
       3.122932636642e-01       1.440084771931e+02 
       3.227977140021e-01       1.354591352234e+02 
       3.336795516667e-01       1.278826826760e+02 
       3.449597896773e-01       1.208216089642e+02 
       3.566621961377e-01       1.137998267810e+02 
       3.688138141096e-01       1.067177005445e+02 
       3.814456004700e-01       9.986811680426e+01 
       3.945932198920e-01       9.357095686445e+01 
       4.082980434681e-01       8.782567489676e+01 
       4.226084207299e-01       8.235609361116e+01 
       4.375813219750e-01       7.696581118396e+01 
       4.532844897994e-01       7.174289741550e+01 
       4.697993026507e-01       6.685715310644e+01 
       4.872246527469e-01       6.227928141561e+01 
       5.056822995962e-01       5.785455016417e+01 
       5.253244211408e-01       5.356307265280e+01 
       5.463445260396e-01       4.948419722819e+01 
       5.689936644574e-01       4.558379596901e+01 
       5.936052854811e-01       4.179055595378e+01 
       6.206347782583e-01       3.812314540256e+01 
       6.507251255764e-01       3.455755612908e+01 
       6.848215491365e-01       3.105088770840e+01 
       7.243839644211e-01       2.758277245040e+01 
       7.718090494963e-01       2.409994930660e+01 
       8.313369370294e-01       2.054400462306e+01 
       9.111494617435e-01       1.683368855202e+01 
       1.028272668606e+00       1.289839974498e+01 
       1.216166923537e+00       8.857798014499e+00 
       1.508310956472e+00       5.416234789960e+00 
       1.897374582511e+00       3.170991058902e+00 
       2.388632844222e+00       1.834195244905e+00 
       3.007110535719e+00       1.051142367460e+00 
       3.785727869474e+00       5.973738544630e-01 
       4.765949017019e+00       3.369348291245e-01 
       5.999974328840e+00       1.887405604455e-01 
       7.553520152689e+00       1.050684608393e-01 
       9.509318468720e+00       5.815719335618e-02 
       1.197152266912e+01       3.202332968774e-02 
