# Matter power spectrum P(k) at redshift z=1
# for k=2.30433e-07 to 11.5613 h/Mpc,
# number of wavenumbers equal to 139
#    1:k (h/Mpc)              2:P (Mpc/h)^3        
       2.304331914099e-07       2.790006113544e-01 
       2.900982003867e-07       3.485259781087e-01 
       3.652119963826e-07       4.353766710127e-01 
       4.597746629382e-07       5.438700627490e-01 
       5.788220068719e-07       6.793993906282e-01 
       7.286937333568e-07       8.487018556618e-01 
       9.173710583380e-07       1.060193530537e+00 
       1.154901737386e-06       1.324387724270e+00 
       1.453935145321e-06       1.654417600349e+00 
       1.830395901545e-06       2.066689027625e+00 
       2.304331914099e-06       2.581696115236e+00 
       2.900982003867e-06       3.225039969739e+00 
       3.652119963826e-06       4.028701312900e+00 
       4.597746629382e-06       5.032630211106e+00 
       5.788220068719e-06       6.286731921339e+00 
       7.286937333568e-06       7.853347534189e+00 
       9.173710583380e-06       9.810352643327e+00 
       1.154901737386e-05       1.225502792431e+01 
       1.453935145321e-05       1.530889372292e+01 
       1.830395901545e-05       1.912374835693e+01 
       2.304331914099e-05       2.388920910190e+01 
       2.900982003867e-05       2.984212830498e+01 
       3.652119963826e-05       3.727834796490e+01 
       4.597746629382e-05       4.656736770399e+01 
       5.788220068720e-05       5.817063669960e+01 
       7.286937333568e-05       7.266434227498e+01 
       9.173710583380e-05       9.076775567952e+01 
       1.154901737386e-04       1.133784024030e+02 
       1.453935145321e-04       1.416155278181e+02 
       1.830395901545e-04       1.768734801586e+02 
       2.304331914099e-04       2.208866301610e+02 
       2.900982003867e-04       2.758071042083e+02 
       3.652119963826e-04       3.442956214250e+02 
       4.597746629382e-04       4.296236927409e+02 
       5.788220068720e-04       5.357820594183e+02 
       7.286937333568e-04       6.675858235378e+02 
       9.173710583380e-04       8.307624000015e+02 
       1.154901737386e-03       1.032002869892e+03 
       1.453935145321e-03       1.278935622407e+03 
       1.830395901545e-03       1.579920713666e+03 
       2.304331914099e-03       1.943523423619e+03 
       2.900982003867e-03       2.377584606733e+03 
       3.652119963826e-03       2.887734571890e+03 
       4.597746629382e-03       3.475220289751e+03 
       5.788220068720e-03       4.124535219653e+03 
       7.286937333568e-03       4.832067737490e+03 
       9.173710583380e-03       5.557130843285e+03 
       1.154901737386e-02       6.243658568575e+03 
       1.453935145321e-02       6.810115918117e+03 
       1.830395901530e-02       7.151404640117e+03 
       2.304331853327e-02       7.156738012288e+03 
       2.900947999225e-02       6.758378153829e+03 
       3.648456899011e-02       6.014816777636e+03 
       4.500976468813e-02       5.216400735666e+03 
       5.176752074254e-02       4.733482146015e+03 
       5.676360163483e-02       4.457351325514e+03 
       6.095349915057e-02       4.262396187630e+03 
       6.472804314415e-02       4.102943533154e+03 
       6.826689713716e-02       3.958713389042e+03 
       7.166740748924e-02       3.819210123186e+03 
       7.498893223717e-02       3.678785887704e+03 
       7.827095929498e-02       3.534727935738e+03 
       8.154160064618e-02       3.386364436222e+03 
       8.482200588441e-02       3.234539102730e+03 
       8.812884325334e-02       3.081211164768e+03 
       9.147578333296e-02       2.929083870340e+03 
       9.487443150605e-02       2.781230843147e+03 
       9.833493826831e-02       2.640721627615e+03 
       1.018664122798e-01       2.510265180936e+03 
       1.054772077563e-01       2.391895240450e+03 
       1.091751290238e-01       2.286720771998e+03 
       1.129675788041e-01       2.194760660220e+03 
       1.168616672519e-01       2.114879243244e+03 
       1.208642929739e-01       2.044840517503e+03 
       1.249822036403e-01       1.981502223067e+03 
       1.292220414960e-01       1.921168219206e+03 
       1.335903775718e-01       1.860097872411e+03 
       1.380937374081e-01       1.795128329503e+03 
       1.427386204467e-01       1.724303542133e+03 
       1.475315148035e-01       1.647349090513e+03 
       1.524789088502e-01       1.565820539281e+03 
       1.575873008356e-01       1.482814338760e+03 
       1.628632076578e-01       1.402259194004e+03 
       1.683131738192e-01       1.327950695630e+03 
       1.739437815451e-01       1.262585394118e+03 
       1.797616630189e-01       1.207051279163e+03 
       1.857735156656e-01       1.160163220708e+03 
       1.919861214021e-01       1.118945267478e+03 
       1.984063707659e-01       1.079468902690e+03 
       2.050412928274e-01       1.038107025458e+03 
       2.118980917990e-01       9.928320052040e+02 
       2.189841912679e-01       9.439984694528e+02 
       2.263072870209e-01       8.941416282101e+02 
       2.338754094948e-01       8.467796386565e+02 
       2.416969970001e-01       8.047698298421e+02 
       2.497809810307e-01       7.690205321521e+02 
       2.581368852199e-01       7.381648520479e+02 
       2.667749398431e-01       7.093616646999e+02 
       2.757062142378e-01       6.798833329193e+02 
       2.849427701396e-01       6.486546682741e+02 
       2.944978397746e-01       6.167420159998e+02 
       3.043860336545e-01       5.863906419718e+02 
       3.146235844917e-01       5.593055841007e+02 
       3.252286355936e-01       5.354685614231e+02 
       3.362215846922e-01       5.133440939804e+02 
       3.476254976489e-01       4.912645877204e+02 
       3.594666112159e-01       4.688157015384e+02 
       3.717749505472e-01       4.469543180866e+02 
       3.845850962367e-01       4.267917615544e+02 
       3.979371484986e-01       4.083840141590e+02 
       4.118779545671e-01       3.908251931953e+02 
       4.264626923782e-01       3.734210296686e+02 
       4.417569438071e-01       3.564211062042e+02 
       4.578394518889e-01       3.403936392877e+02 
       4.748058515656e-01       3.252758390730e+02 
       4.927738151640e-01       3.105589816112e+02 
       5.118903023942e-01       2.961412328637e+02 
       5.323420248435e-01       2.822669747249e+02 
       5.543709701900e-01       2.688357310694e+02 
       5.782981691199e-01       2.555948103563e+02 
       6.045614321569e-01       2.425663327476e+02 
       6.337778721665e-01       2.296504465886e+02 
       6.668528044653e-01       2.166530951209e+02 
       7.051809505138e-01       2.034292951038e+02 
       7.510447680377e-01       1.896809277721e+02 
       8.084669442794e-01       1.749990821717e+02 
       8.851775243519e-01       1.587104896862e+02 
       9.972260930845e-01       1.397821105520e+02 
       1.176478162640e+00       1.172324397754e+02 
       1.456846174164e+00       9.285170274418e+01 
       1.832363838317e+00       7.116197677446e+01 
       2.306784395614e+00       5.311840058997e+01 
       2.904069426049e+00       3.838694527899e+01 
       3.656006798043e+00       2.674996069111e+01 
       4.602639863748e+00       1.797590448329e+01 
       5.794380285810e+00       1.169291073237e+01 
       7.294692587405e+00       7.402403771024e+00 
       9.183473869511e+00       4.585777487833e+00 
       1.156130862287e+01       2.793538685346e+00 
