# Matter power spectrum P(k) at redshift z=2.5
# for k=2.09827e-07 to 10.527 h/Mpc,
# number of wavenumbers equal to 139
#    1:k (h/Mpc)              2:P (Mpc/h)^3        
       2.098271979565e-07       1.123620491364e-01 
       2.641567915930e-07       1.401585676322e-01 
       3.325536976344e-07       1.748314864371e-01 
       4.186603007381e-07       2.180819136390e-01 
       5.270620915085e-07       2.720317832965e-01 
       6.635318605935e-07       3.393279607541e-01 
       8.353371208362e-07       4.232721020143e-01 
       1.051627128836e-06       5.279826378427e-01 
       1.323920116223e-06       6.585968296782e-01 
       1.666716677499e-06       8.215228113089e-01 
       2.098271979565e-06       1.024753978647e+00 
       2.641567915930e-06       1.278261154148e+00 
       3.325536976344e-06       1.594481762317e+00 
       4.186603007381e-06       1.988930010722e+00 
       5.270620915085e-06       2.480958005760e+00 
       6.635318605935e-06       3.094705126066e+00 
       8.353371208362e-06       3.860282198808e+00 
       1.051627128836e-05       4.815248507124e+00 
       1.323920116223e-05       6.006453957706e+00 
       1.666716677499e-05       7.492336529455e+00 
       2.098271979565e-05       9.345787185108e+00 
       2.641567915930e-05       1.165772178549e+01 
       3.325536976344e-05       1.454153318437e+01 
       4.186603007381e-05       1.813863791642e+01 
       5.270620915085e-05       2.262538163383e+01 
       6.635318605935e-05       2.822162631926e+01 
       8.353371208362e-05       3.520140969208e+01 
       1.051627128836e-04       4.390613876609e+01 
       1.323920116223e-04       5.476084555048e+01 
       1.666716677499e-04       6.829406955035e+01 
       2.098271979565e-04       8.516189215304e+01 
       2.641567915930e-04       1.061764417556e+02 
       3.325536976344e-04       1.323386584285e+02 
       4.186603007381e-04       1.648740114782e+02 
       5.270620915085e-04       2.052679235500e+02 
       6.635318605935e-04       2.552947924449e+02 
       8.353371208362e-04       3.170314157915e+02 
       1.051627128836e-03       3.928441767397e+02 
       1.323920116223e-03       4.853395665293e+02 
       1.666716677499e-03       5.972564581103e+02 
       2.098271979565e-03       7.312329242564e+02 
       2.641567915930e-03       8.893599149802e+02 
       3.325536976344e-03       1.072549341763e+03 
       4.186603007381e-03       1.279706491997e+03 
       5.270620915085e-03       1.506140137672e+03 
       6.635318605935e-03       1.743826180735e+03 
       8.353371208362e-03       1.977797031493e+03 
       1.051627128836e-02       2.186081214601e+03 
       1.323920116223e-02       2.338708555977e+03 
       1.666716677495e-02       2.399318079600e+03 
       2.098271959004e-02       2.332642901989e+03 
       2.641553070104e-02       2.122875562862e+03 
       3.323568670324e-02       1.802676648233e+03 
       4.123598876826e-02       1.482570020697e+03 
       4.791072601332e-02       1.298272902615e+03 
       5.276450166247e-02       1.204846734241e+03 
       5.677838972026e-02       1.144710106989e+03 
       6.036754276857e-02       1.098202601273e+03 
       6.371792169564e-02       1.057065813343e+03 
       6.692832158147e-02       1.017158971029e+03 
       7.005813914094e-02       9.763016931703e+02 
       7.314646841299e-02       9.334785688320e+02 
       7.622090543432e-02       8.884795111069e+02 
       7.930206600447e-02       8.416911253152e+02 
       8.240610071835e-02       7.939354660784e+02 
       8.554618739669e-02       7.463181610313e+02 
       8.873346319095e-02       7.000753942631e+02 
       9.197763152659e-02       6.564240104118e+02 
       9.528737113283e-02       6.164239031495e+02 
       9.867061963862e-02       5.808632399396e+02 
       1.021347748483e-01       5.501738929343e+02 
       1.056868403177e-01       5.243798731957e+02 
       1.093335322137e-01       5.030795494198e+02 
       1.130813586179e-01       4.854642173524e+02 
       1.169366788115e-01       4.703793335677e+02 
       1.209057477748e-01       4.564399436278e+02 
       1.249947496367e-01       4.422079595507e+02 
       1.292098228233e-01       4.264236740983e+02 
       1.335570790038e-01       4.082552031170e+02 
       1.380426174906e-01       3.875014913860e+02 
       1.426725364679e-01       3.646727161086e+02 
       1.474529422252e-01       3.408956940263e+02 
       1.523899574544e-01       3.176476220787e+02 
       1.574897295870e-01       2.963868352299e+02 
       1.627584401010e-01       2.781864961829e+02 
       1.682023156938e-01       2.634685142485e+02 
       1.738276422010e-01       2.518961748826e+02 
       1.796407821251e-01       2.424503889093e+02 
       1.856481966310e-01       2.336985898904e+02 
       1.918564728616e-01       2.242325929906e+02 
       1.982723574274e-01       2.131672726133e+02 
       2.049027969416e-01       2.004906550746e+02 
       2.117549865014e-01       1.870548055083e+02 
       2.188364270784e-01       1.741649717347e+02 
       2.261549928782e-01       1.629638258722e+02 
       2.337190098779e-01       1.539212675805e+02 
       2.415373469713e-01       1.466602979385e+02 
       2.496195214577e-01       1.401871796973e+02 
       2.579758210329e-01       1.334389468103e+02 
       2.666174450089e-01       1.258866690758e+02 
       2.755566682503e-01       1.178117446373e+02 
       2.848070323133e-01       1.100298183743e+02 
       2.943835696074e-01       1.032595846717e+02 
       3.043030681499e-01       9.761907391877e+01 
       3.145843868331e-01       9.260921797425e+01 
       3.252488342624e-01       8.757451249115e+01 
       3.363206284943e-01       8.226196958638e+01 
       3.478274608553e-01       7.697281087881e+01 
       3.598011951725e-01       7.216612437897e+01 
       3.722787452403e-01       6.795494503654e+01 
       3.853031898330e-01       6.403913678339e+01 
       3.989252086215e-01       6.011201291333e+01 
       4.132049580769e-01       5.621630755353e+01 
       4.282145606264e-01       5.259107984524e+01 
       4.440414643195e-01       4.927488063803e+01 
       4.607930637162e-01       4.608289872490e+01 
       4.786031905722e-01       4.294305867699e+01 
       4.976414495190e-01       3.996238965352e+01 
       5.181270122428e-01       3.714651565517e+01 
       5.403496384587e-01       3.439908828559e+01 
       5.647028740901e-01       3.173539491828e+01 
       5.917387094574e-01       2.915983472295e+01 
       6.222620790858e-01       2.661953523903e+01 
       6.575039418711e-01       2.410988603946e+01 
       6.994604764871e-01       2.158573335862e+01 
       7.516110263708e-01       1.900526025878e+01 
       8.205597659127e-01       1.630058134199e+01 
       9.199114751590e-01       1.339407901841e+01 
       1.077334080504e+00       1.028658135771e+01 
       1.327310767485e+00       7.363588960878e+00 
       1.668451784524e+00       5.202368325849e+00 
       2.100410168388e+00       3.733002849356e+00 
       2.644259572293e+00       2.713813113356e+00 
       3.328925570858e+00       1.985882855676e+00 
       4.190868995124e+00       1.452082468028e+00 
       5.275991475462e+00       1.053137528562e+00 
       6.642079740869e+00       7.524904506646e-01 
       8.361882972943e+00       5.267940868710e-01 
       1.052698696509e+01       3.599636883275e-01 
