# Matter power spectrum P(k) at redshift z=2
# for k=2.03215e-07 to 10.1954 h/Mpc,
# number of wavenumbers equal to 139
#    1:k (h/Mpc)              2:P (Mpc/h)^3        
       2.032145873143e-07       2.039948622180e-01 
       2.558320080173e-07       2.544598279690e-01 
       3.220734160433e-07       3.174089940893e-01 
       4.054664079203e-07       3.959307458729e-01 
       5.104519645597e-07       4.938774840011e-01 
       6.426209496845e-07       6.160546293952e-01 
       8.090118437091e-07       7.684563841862e-01 
       1.018485568488e-06       9.585598163700e-01 
       1.282197363715e-06       1.195691695128e+00 
       1.614190844116e-06       1.491486074658e+00 
       2.032145873143e-06       1.860455074348e+00 
       2.558320080173e-06       2.320700856217e+00 
       3.220734160433e-06       2.894803727439e+00 
       4.054664079203e-06       3.610929929358e+00 
       5.104519645597e-06       4.504213441727e+00 
       6.426209496845e-06       5.618479569755e+00 
       8.090118437091e-06       7.008394792747e+00 
       1.018485568488e-05       8.742148222214e+00 
       1.282197363715e-05       1.090479594716e+01 
       1.614190844116e-05       1.360243180325e+01 
       2.032145873143e-05       1.696738812385e+01 
       2.558320080173e-05       2.116471951720e+01 
       3.220734160433e-05       2.640028359723e+01 
       4.054664079203e-05       3.293080688020e+01 
       5.104519645597e-05       4.107641340428e+01 
       6.426209496845e-05       5.123619869774e+01 
       8.090118437091e-05       6.390754992800e+01 
       1.018485568488e-04       7.971003595967e+01 
       1.282197363715e-04       9.941479647897e+01 
       1.614190844116e-04       1.239803990474e+02 
       2.032145873143e-04       1.545960118370e+02 
       2.558320080173e-04       1.927322788519e+02 
       3.220734160433e-04       2.401991832305e+02 
       4.054664079203e-04       2.992080100182e+02 
       5.104519645597e-04       3.724308531045e+02 
       6.426209496845e-04       4.630460945843e+02 
       8.090118437091e-04       5.747536476587e+02 
       1.018485568488e-03       7.117424678136e+02 
       1.282197363715e-03       8.785902541388e+02 
       1.614190844116e-03       1.080040124151e+03 
       2.032145873143e-03       1.320515442282e+03 
       2.558320080173e-03       1.603270642459e+03 
       3.220734160433e-03       1.929245980488e+03 
       4.054664079203e-03       2.295544201346e+03 
       5.104519645597e-03       2.693421873898e+03 
       6.426209496845e-03       3.104291486431e+03 
       8.090118437091e-03       3.503510237421e+03 
       1.018485568488e-02       3.849867288284e+03 
       1.282197363715e-02       4.089944009192e+03 
       1.614190844114e-02       4.160345286910e+03 
       2.032145859469e-02       4.001626484119e+03 
       2.558309211059e-02       3.591367823180e+03 
       3.219175912851e-02       2.994870600641e+03 
       4.001145202466e-02       2.411195417350e+03 
       4.667020864684e-02       2.080000930579e+03 
       5.148798996669e-02       1.919540773187e+03 
       5.545031320695e-02       1.820052821307e+03 
       5.898309555262e-02       1.744862814125e+03 
       6.227530468342e-02       1.678915080126e+03 
       6.542658397691e-02       1.614770616211e+03 
       6.849652011604e-02       1.548561005362e+03 
       7.152417449723e-02       1.478521977103e+03 
       7.453703221443e-02       1.404337045145e+03 
       7.755557212866e-02       1.326756873072e+03 
       8.059580170244e-02       1.247303624258e+03 
       8.367075681283e-02       1.167991642226e+03 
       8.679143626615e-02       1.091048283522e+03 
       8.996740913726e-02       1.018643245443e+03 
       9.320722341401e-02       9.526457663424e+02 
       9.651868895298e-02       8.944281588893e+02 
       9.990907808480e-02       8.447273338536e+02 
       1.033852705805e-01       8.035664403075e+02 
       1.069538599939e-01       7.702336020043e+02 
       1.106212325438e-01       7.433183204524e+02 
       1.143936260680e-01       7.208155784344e+02 
       1.182771742674e-01       7.003191671893e+02 
       1.222779399627e-01       6.793221675767e+02 
       1.264019400985e-01       6.556153336476e+02 
       1.306551645749e-01       6.277232709880e+02 
       1.350435905515e-01       5.952633833953e+02 
       1.395731935786e-01       5.590917930793e+02 
       1.442499567196e-01       5.211403422977e+02 
       1.490798787039e-01       4.839521709404e+02 
       1.540689820734e-01       4.500400197709e+02 
       1.592233222313e-01       4.212573494072e+02 
       1.645489982780e-01       3.983500911687e+02 
       1.700521664924e-01       3.807803965157e+02 
       1.757390573080e-01       3.668526816343e+02 
       1.816159966248e-01       3.541538167717e+02 
       1.876894322901e-01       3.402792550309e+02 
       1.939659665880e-01       3.236775965839e+02 
       2.004523955880e-01       3.042627141834e+02 
       2.071557562347e-01       2.834236552530e+02 
       2.140833821178e-01       2.633458662760e+02 
       2.212429689541e-01       2.459743061875e+02 
       2.286426509601e-01       2.321492205069e+02 
       2.362910894998e-01       2.213004388512e+02 
       2.441975756931e-01       2.118072193871e+02 
       2.523721490753e-01       2.018874040237e+02 
       2.608257349477e-01       1.906047927405e+02 
       2.695703037921e-01       1.783639361967e+02 
       2.786190570914e-01       1.664910458119e+02 
       2.879866451800e-01       1.562005892110e+02 
       2.976894244473e-01       1.477435959059e+02 
       3.077457634760e-01       1.403425194679e+02 
       3.181764107355e-01       1.329166317346e+02 
       3.290049405625e-01       1.250052906821e+02 
       3.402582998083e-01       1.170612769231e+02 
       3.519674853765e-01       1.098396584063e+02 
       3.641683939437e-01       1.035653856197e+02 
       3.769029010067e-01       9.777900346033e+01 
       3.902202495077e-01       9.196793284123e+01 
       4.041788625821e-01       8.616856153155e+01 
       4.188487469296e-01       8.076482723895e+01 
       4.343147337508e-01       7.584646335141e+01 
       4.506809318452e-01       7.112697412485e+01 
       4.680769755464e-01       6.647142739181e+01 
       4.866669997748e-01       6.204481641725e+01 
       5.066628820363e-01       5.787368034140e+01 
       5.283443880826e-01       5.380468414129e+01 
       5.520909257754e-01       4.985209987735e+01 
       5.784337062181e-01       4.603303164565e+01 
       6.081456844513e-01       4.226261096774e+01 
       6.424057685043e-01       3.853353787140e+01 
       6.831194445277e-01       3.477783830554e+01 
       7.335946608668e-01       3.093045877909e+01 
       8.000818751229e-01       2.688445795883e+01 
       8.954151528008e-01       2.250871779427e+01 
       1.045872282779e+00       1.776022983926e+01 
       1.285887311691e+00       1.314295041313e+01 
       1.615913852390e+00       9.574252524958e+00 
       2.034257422400e+00       7.041206634029e+00 
       2.560978139504e+00       5.205257256424e+00 
       3.224080458747e+00       3.839666357921e+00 
       4.058876819186e+00       2.805784542592e+00 
       5.109823171015e+00       2.017910008648e+00 
       6.432886239766e+00       1.420853287899e+00 
       8.098523958422e+00       9.758778332614e-01 
       1.019543760928e+01       6.524601482515e-01 
