# Matter power spectrum P(k) at redshift z=0
# for k=2.07142e-07 to 10.3923 h/Mpc,
# number of wavenumbers equal to 139
#    1:k (h/Mpc)              2:P (Mpc/h)^3        
       2.071417498061e-07       1.215587427275e+00 
       2.607760126744e-07       1.516303715880e+00 
       3.282975491422e-07       1.891412255723e+00 
       4.133021272448e-07       2.359316462492e+00 
       5.203165507371e-07       2.942972452380e+00 
       6.550397279000e-07       3.671015304631e+00 
       8.246461591881e-07       4.579163941197e+00 
       1.038168005540e-06       5.711973549316e+00 
       1.306976083886e-06       7.125021520649e+00 
       1.645385404612e-06       8.887634149144e+00 
       2.071417498061e-06       1.108628785505e+01 
       2.607760126744e-06       1.382885178879e+01 
       3.282975491422e-06       1.724987993186e+01 
       4.133021272448e-06       2.151721227087e+01 
       5.203165507371e-06       2.684020878406e+01 
       6.550397279000e-06       3.348001996883e+01 
       8.246461591881e-06       4.176239731375e+01 
       1.038168005540e-05       5.209367125986e+01 
       1.306976083886e-05       6.498067865881e+01 
       1.645385404612e-05       8.105561366810e+01 
       2.071417498061e-05       1.011070139102e+02 
       2.607760126744e-05       1.261183875272e+02 
       3.282975491422e-05       1.573163474070e+02 
       4.133021272448e-05       1.962305572544e+02 
       5.203165507371e-05       2.447683184384e+02 
       6.550397279000e-05       3.053072365535e+02 
       8.246461591881e-05       3.808100815187e+02 
       1.038168005540e-04       4.749666323406e+02 
       1.306976083886e-04       5.923678296693e+02 
       1.645385404612e-04       7.387176470117e+02 
       2.071417498061e-04       9.210871837752e+02 
       2.607760126744e-04       1.148212687429e+03 
       3.282975491422e-04       1.430833358621e+03 
       4.133021272448e-04       1.782055001661e+03 
       5.203165507371e-04       2.217712546505e+03 
       6.550397279000e-04       2.756690321351e+03 
       8.246461591881e-04       3.421136261601e+03 
       1.038168005540e-03       4.236430650018e+03 
       1.306976083886e-03       5.230602032931e+03 
       1.645385404612e-03       6.432808642914e+03 
       2.071417498061e-03       7.870568223594e+03 
       2.607760126744e-03       9.565127456308e+03 
       3.282975491422e-03       1.152464213278e+04 
       4.133021272448e-03       1.373513497630e+04 
       5.203165507371e-03       1.614839328777e+04 
       6.550397279000e-03       1.858535847868e+04 
       8.246461591881e-03       2.101678507351e+04 
       1.038168005540e-02       2.314787551919e+04 
       1.306976083886e-02       2.465911677730e+04 
       1.645385404609e-02       2.516970159793e+04 
       2.071417480030e-02       2.432070678324e+04 
       2.607746706788e-02       2.197150622996e+04 
       3.281151800192e-02       1.849986224101e+04 
       4.073328275692e-02       1.508521507924e+04 
       4.738493576733e-02       1.313921042842e+04 
       5.221383721815e-02       1.216906454002e+04 
       5.620029747763e-02       1.155281179075e+04 
       5.976168511917e-02       1.108073114368e+04 
       6.308438785223e-02       1.066576441321e+04 
       6.626719426290e-02       1.026466025274e+04 
       6.936939701622e-02       9.854830200345e+03 
       7.242997211987e-02       9.425859145161e+03 
       7.547640458117e-02       8.975683312906e+03 
       7.852921016741e-02       8.508377093407e+03 
       8.160444975143e-02       8.032447859824e+03 
       8.471521996596e-02       7.559234505556e+03 
       8.787258350810e-02       7.101307140165e+03 
       9.108617454139e-02       6.670914620654e+03 
       9.436460648146e-02       6.278586389233e+03 
       9.771575461192e-02       5.931996816113e+03 
       1.011469565963e-01       5.635160754373e+03 
       1.046651574622e-01       5.387979248738e+03 
       1.082770160049e-01       5.186123369737e+03 
       1.119889837401e-01       5.021261578576e+03 
       1.158073639220e-01       4.881688065772e+03 
       1.197383558404e-01       4.753464942283e+03 
       1.237880881172e-01       4.622173589373e+03 
       1.279626437410e-01       4.475217958433e+03 
       1.322680789243e-01       4.304331666271e+03 
       1.367104374344e-01       4.107623365004e+03 
       1.412957617596e-01       3.890361171365e+03 
       1.460301022824e-01       3.663942720537e+03 
       1.509195255077e-01       3.443116819959e+03 
       1.559701223161e-01       3.242223890579e+03 
       1.611880171630e-01       3.071587853409e+03 
       1.665793791133e-01       2.935024065876e+03 
       1.721504355818e-01       2.828952254761e+03 
       1.779074896382e-01       2.743249879841e+03 
       1.838569417241e-01       2.663889772182e+03 
       1.900053166269e-01       2.577183480281e+03 
       1.963592965593e-01       2.474635160376e+03 
       2.029257612046e-01       2.356332268253e+03 
       2.097118356218e-01       2.230732169934e+03 
       2.167249469619e-01       2.110477669146e+03 
       2.239728910449e-01       2.006362280209e+03 
       2.314639099916e-01       1.922575763649e+03 
       2.392067823236e-01       1.855301882313e+03 
       2.472109272445e-01       1.795071508227e+03 
       2.554865252348e-01       1.731955432600e+03 
       2.640446576518e-01       1.661174152179e+03 
       2.728974687742e-01       1.585532612904e+03 
       2.820583547225e-01       1.512627401807e+03 
       2.915421849930e-01       1.448915254368e+03 
       3.013655640790e-01       1.395261041449e+03 
       3.115471429612e-01       1.347048738036e+03 
       3.221079933525e-01       1.298452356162e+03 
       3.330720617846e-01       1.247354181299e+03 
       3.444667264019e-01       1.196478140293e+03 
       3.563234873493e-01       1.149749562294e+03 
       3.686788329738e-01       1.108002439325e+03 
       3.815753402941e-01       1.068625522478e+03 
       3.950630918714e-01       1.029089260691e+03 
       4.092015263888e-01       9.897859601202e+02 
       4.240618935600e-01       9.526055744486e+02 
       4.397305666176e-01       9.177587455378e+02 
       4.563135968563e-01       8.837522216876e+02 
       4.739431088318e-01       8.500174266658e+02 
       4.927864949714e-01       8.172889180088e+02 
       5.130599950215e-01       7.855018630362e+02 
       5.350493787646e-01       7.538746472393e+02 
       5.591425897810e-01       7.223811181865e+02 
       5.858834519073e-01       6.908574099243e+02 
       6.160644443824e-01       6.587051075768e+02 
       6.508964523503e-01       6.255069089065e+02 
       6.923410474709e-01       5.903979188909e+02 
       7.438128907763e-01       5.521521797294e+02 
       8.117840812551e-01       5.086770096686e+02 
       9.095737772718e-01       4.564819653419e+02 
       1.064330217408e+00       3.909544393503e+02 
       1.310445316381e+00       3.136670557667e+02 
       1.647108308807e+00       2.395410603564e+02 
       2.073537092551e+00       1.762385066033e+02 
       2.610428357652e+00       1.248748680674e+02 
       3.286334595023e+00       8.542032708257e+01 
       4.137250133333e+00       5.668099210121e+01 
       5.208489327802e+00       3.667833373450e+01 
       6.557099571829e+00       2.326266865063e+01 
       8.254899278640e+00       1.452433445275e+01 
       1.039230247368e+01       8.959897817206e+00 
