# Matter power spectrum P(k) at redshift z=1.5
# for k=1.68634e-07 to 10.6549 h/Mpc,
# number of wavenumbers equal to 140
#    1:k (h/Mpc)              2:P (Mpc/h)^3        
       1.686344168315e-07       5.243864301825e-01 
       2.122981526523e-07       6.541109873458e-01 
       2.672675392509e-07       8.159272607948e-01 
       3.364698969106e-07       1.017774211438e+00 
       4.235905035246e-07       1.269554767687e+00 
       5.332688490818e-07       1.583621678067e+00 
       6.713457054273e-07       1.975383555092e+00 
       8.451741686613e-07       2.464060843537e+00 
       1.064011238320e-06       3.073628800291e+00 
       1.339510786355e-06       3.833993748335e+00 
       1.686344168315e-06       4.782460306319e+00 
       2.122981526523e-06       5.965561572002e+00 
       2.672675392509e-06       7.441342028851e+00 
       3.364698969106e-06       9.282205138212e+00 
       4.235905035246e-06       1.157846525124e+01 
       5.332688490818e-06       1.444277794998e+01 
       6.713457054273e-06       1.801566586373e+01 
       8.451741686613e-06       2.247241049576e+01 
       1.064011238320e-05       2.803164696322e+01 
       1.339510786355e-05       3.496608102590e+01 
       1.686344168315e-05       4.361584956821e+01 
       2.122981526523e-05       5.440517090130e+01 
       2.672675392509e-05       6.786308378711e+01 
       3.364698969106e-05       8.464925711996e+01 
       4.235905035246e-05       1.055860664547e+02 
       5.332688490818e-05       1.316983728129e+02 
       6.713457054273e-05       1.642626840310e+02 
       8.451741686613e-05       2.048675777937e+02 
       1.064011238320e-04       2.554873126050e+02 
       1.339510786355e-04       3.185702289743e+02 
       1.686344168315e-04       3.971424402802e+02 
       2.122981526523e-04       4.949247194195e+02 
       2.672675392509e-04       6.164553179043e+02 
       3.364698969106e-04       7.672024661252e+02 
       4.235905035246e-04       9.536372277486e+02 
       5.332688490818e-04       1.183223759747e+03 
       6.713457054273e-04       1.464279853637e+03 
       8.451741686613e-04       1.805670815031e+03 
       1.064011238320e-03       2.216272592070e+03 
       1.339510786355e-03       2.703957922729e+03 
       1.686344168315e-03       3.273731025693e+03 
       2.122981526523e-03       3.925158776101e+03 
       2.672675392509e-03       4.649389780943e+03 
       3.364698969106e-03       5.425866639106e+03 
       4.235905035246e-03       6.218627781708e+03 
       5.332688490818e-03       6.973624716166e+03 
       6.713457054273e-03       7.617152422007e+03 
       8.451741686613e-03       8.056091414290e+03 
       1.064011238320e-02       8.181596781276e+03 
       1.339510786355e-02       7.881787400943e+03 
       1.686344167549e-02       7.076133975540e+03 
       2.122980327214e-02       5.787567798529e+03 
       2.672376612440e-02       4.238184476840e+03 
       3.348165101316e-02       2.875552183715e+03 
       4.012391386737e-02       2.155580449740e+03 
       4.489528075574e-02       1.907255569117e+03 
       4.865869758051e-02       1.804368239226e+03 
       5.194050844909e-02       1.747908228811e+03 
       5.496052139491e-02       1.703147963404e+03 
       5.782852426711e-02       1.654216596348e+03 
       6.060768226311e-02       1.593275527548e+03 
       6.333823000670e-02       1.517152055632e+03 
       6.604784688378e-02       1.425971849183e+03 
       6.875677880489e-02       1.322342995209e+03 
       7.148060592550e-02       1.210634917811e+03 
       7.423184690679e-02       1.096225033922e+03 
       7.702094207181e-02       9.847283387089e+02 
       7.985688374366e-02       8.812889658741e+02 
       8.274763563860e-02       7.900271319202e+02 
       8.570042058730e-02       7.137059038507e+02 
       8.872192297552e-02       6.536256852569e+02 
       9.181843414727e-02       6.096888060567e+02 
       9.499595856578e-02       5.805379893989e+02 
       9.826029229336e-02       5.636839370134e+02 
       1.016170815160e-01       5.556067291323e+02 
       1.050718664176e-01       5.519133022176e+02 
       1.086301141487e-01       5.476981412362e+02 
       1.122972436119e-01       5.382211270667e+02 
       1.160786441101e-01       5.198593457352e+02 
       1.199796894519e-01       4.910693549930e+02 
       1.240057488109e-01       4.529469053159e+02 
       1.281621954338e-01       4.090354734009e+02 
       1.324544141668e-01       3.643414357935e+02 
       1.368878086830e-01       3.239087351754e+02 
       1.414678092447e-01       2.915179450008e+02 
       1.461998817996e-01       2.689311538964e+02 
       1.510895391905e-01       2.557245584279e+02 
       1.561423552433e-01       2.494953625859e+02 
       1.613639824926e-01       2.463429310783e+02 
       1.667601742936e-01       2.417941974425e+02 
       1.723368120736e-01       2.322637122486e+02 
       1.780999384816e-01       2.165535804957e+02 
       1.840557972172e-01       1.964164510798e+02 
       1.902108803609e-01       1.756009926164e+02 
       1.965719841015e-01       1.579121222333e+02 
       2.031462738662e-01       1.455024833236e+02 
       2.099413600283e-01       1.381831031797e+02 
       2.169653856026e-01       1.337500027899e+02 
       2.242271276685e-01       1.291142314997e+02 
       2.317361147085e-01       1.219767273038e+02 
       2.395027626433e-01       1.121851687364e+02 
       2.475385331380e-01       1.016246681980e+02 
       2.558561188014e-01       9.263140989041e+01 
       2.644696612807e-01       8.629985331982e+01 
       2.733950100995e-01       8.192451822480e+01 
       2.826500325437e-01       7.776885441787e+01 
       2.922549882289e-01       7.256777807975e+01 
       3.022329865256e-01       6.654677562463e+01 
       3.126105513018e-01       6.093473318839e+01 
       3.234183262653e-01       5.654639981339e+01 
       3.346919667489e-01       5.302629243927e+01 
       3.464732819866e-01       4.945831551102e+01 
       3.588117187682e-01       4.552725707129e+01 
       3.717663177323e-01       4.175378741607e+01 
       3.854083355792e-01       3.856880734643e+01 
       3.998248240579e-01       3.570482828134e+01 
       4.151236141026e-01       3.277762340657e+01 
       4.314404153236e-01       2.992764165079e+01 
       4.489491905944e-01       2.737469973258e+01 
       4.678777660749e-01       2.494638067540e+01 
       4.885321230642e-01       2.255461318632e+01 
       5.113357091882e-01       2.031622692032e+01 
       5.368960399664e-01       1.814911031900e+01 
       5.661237988187e-01       1.604111784977e+01 
       6.004598075554e-01       1.398018632131e+01 
       6.423406364881e-01       1.193291569160e+01 
       6.962327143724e-01       9.864144678406e+00 
       7.710727865126e-01       7.736532838713e+00 
       8.855879633993e-01       5.548197335552e+00 
       1.071287757043e+00       3.494872614444e+00 
       1.341565803575e+00       2.009671030272e+00 
       1.688693804985e+00       1.132847639078e+00 
       2.125937882312e+00       6.340895025486e-01 
       2.676397222062e+00       3.527537839744e-01 
       3.369384474909e+00       1.951474353645e-01 
       4.241803737568e+00       1.074045146710e-01 
       5.340114517068e+00       5.883390855814e-02 
       6.722805867428e+00       3.208732777646e-02 
       8.463511145064e+00       1.742906201251e-02 
       1.065492925352e+01       9.431086068456e-03 
