# Matter power spectrum P(k) at redshift z=2.5
# for k=2.18902e-07 to 10.9823 h/Mpc,
# number of wavenumbers equal to 139
#    1:k (h/Mpc)              2:P (Mpc/h)^3        
       2.189018713905e-07       1.582300338241e-01 
       2.755811285828e-07       1.965979208885e-01 
       3.469360857838e-07       2.442693181381e-01 
       4.367666546616e-07       3.035001566122e-01 
       5.498566405778e-07       3.770933889874e-01 
       6.922284976671e-07       4.685316326582e-01 
       8.714640464813e-07       5.821419755604e-01 
       1.097108233580e-06       7.233007446840e-01 
       1.381177434743e-06       8.986879266777e-01 
       1.738799370794e-06       1.116603280109e+00 
       2.189018713905e-06       1.387359098803e+00 
       2.755811285828e-06       1.723768209194e+00 
       3.469360857838e-06       2.141750295307e+00 
       4.367666546616e-06       2.661085237322e+00 
       5.498566405778e-06       3.306349101786e+00 
       6.922284976672e-06       4.108077061133e+00 
       8.714640464813e-06       5.104208230059e+00 
       1.097108233580e-05       6.341880719536e+00 
       1.381177434743e-05       7.879661687957e+00 
       1.738799370794e-05       9.790317644093e+00 
       2.189018713905e-05       1.216425546183e+01 
       2.755811285828e-05       1.511379581167e+01 
       3.469360857838e-05       1.877847888544e+01 
       4.367666546616e-05       2.333164896046e+01 
       5.498566405778e-05       2.898862042723e+01 
       6.922284976672e-05       3.601679412094e+01 
       8.714640464813e-05       4.474816809657e+01 
       1.097108233580e-04       5.559476722685e+01 
       1.381177434743e-04       6.906758953120e+01 
       1.738799370794e-04       8.579970896326e+01 
       2.189018713905e-04       1.065741325979e+02 
       2.755811285828e-04       1.323567873920e+02 
       3.469360857838e-04       1.643344373447e+02 
       4.367666546616e-04       2.039561444570e+02 
       5.498566405778e-04       2.529747797380e+02 
       6.922284976672e-04       3.134819609687e+02 
       8.714640464813e-04       3.879263474424e+02 
       1.097108233580e-03       4.791033976248e+02 
       1.381177434743e-03       5.901045849839e+02 
       1.738799370794e-03       7.242020022474e+02 
       2.189018713905e-03       8.845946128500e+02 
       2.755811285828e-03       1.073914442940e+03 
       3.469360857838e-03       1.293511381280e+03 
       4.367666546616e-03       1.542501107052e+03 
       5.498566405778e-03       1.815471982306e+03 
       6.922284976672e-03       2.104292976554e+03 
       8.714640464813e-03       2.391692614866e+03 
       1.097108233580e-02       2.652301776759e+03 
       1.381177434743e-02       2.850972214714e+03 
       1.738799370787e-02       2.944396481973e+03 
       2.189018679584e-02       2.889583537064e+03 
       2.755789321744e-02       2.665088303343e+03 
       3.466721322725e-02       2.305205790876e+03 
       4.290442309288e-02       1.938390823691e+03 
       4.960767628339e-02       1.723407775514e+03 
       5.451805078198e-02       1.607944642498e+03 
       5.860618622902e-02       1.530104633165e+03 
       6.227480470232e-02       1.468230611940e+03 
       6.570651157340e-02       1.413010153454e+03 
       6.899923076922e-02       1.359716292223e+03 
       7.221223113381e-02       1.305838758198e+03 
       7.538472029650e-02       1.250188514771e+03 
       7.854448592237e-02       1.192486626524e+03 
       8.171235609394e-02       1.133124606146e+03 
       8.490469386627e-02       1.072982519300e+03 
       8.813488297028e-02       1.013260447835e+03 
       9.141425846818e-02       9.553102903004e+02 
       9.475271422802e-02       9.004704281034e+02 
       9.815911313493e-02       8.499115319702e+02 
       1.016415719785e-01       8.045048159793e+02 
       1.052076639191e-01       7.647212020087e+02 
       1.088645650836e-01       7.305674529475e+02 
       1.126191622618e-01       7.015630937009e+02 
       1.164781328774e-01       6.767633921353e+02 
       1.204480047939e-01       6.548372224581e+02 
       1.245352012116e-01       6.342091392543e+02 
       1.287460744168e-01       6.132697261092e+02 
       1.330869311577e-01       5.906388802756e+02 
       1.375640517656e-01       5.654384457259e+02 
       1.421837047047e-01       5.375038956791e+02 
       1.469521579438e-01       5.074567620581e+02 
       1.518756883535e-01       4.765875923758e+02 
       1.569605902060e-01       4.465558685013e+02 
       1.622131837805e-01       4.189799386805e+02 
       1.676398250253e-01       3.950286870353e+02 
       1.732469171970e-01       3.751230118736e+02 
       1.790409253797e-01       3.588200003999e+02 
       1.850283947720e-01       3.449168627502e+02 
       1.912159736216e-01       3.317814991361e+02 
       1.976104416847e-01       3.178641647455e+02 
       2.042187450887e-01       3.022477228044e+02 
       2.110480384941e-01       2.850024201255e+02 
       2.181057354866e-01       2.671343439438e+02 
       2.253995681923e-01       2.501058122701e+02 
       2.329376572142e-01       2.351507367900e+02 
       2.407285931456e-01       2.227213303795e+02 
       2.487815311460e-01       2.123218200858e+02 
       2.571063003887e-01       2.028046006060e+02 
       2.657135306308e-01       1.930084333986e+02 
       2.746147987544e-01       1.824143391062e+02 
       2.838227989179e-01       1.713987578750e+02 
       2.933515410111e-01       1.608801755959e+02 
       3.032165834916e-01       1.516129740893e+02 
       3.134353085260e-01       1.436607589959e+02 
       3.240272498064e-01       1.364278188074e+02 
       3.350144867137e-01       1.292025443854e+02 
       3.464221229684e-01       1.217563081305e+02 
       3.582788740594e-01       1.144533807335e+02 
       3.706177962978e-01       1.077799931960e+02 
       3.834772024295e-01       1.018124394386e+02 
       3.969018260992e-01       9.619622945552e+01 
       4.109443227950e-01       9.061542811878e+01 
       4.256672326083e-01       8.514493659506e+01 
       4.411455873927e-01       8.003723636270e+01 
       4.574704337962e-01       7.530248916999e+01 
       4.747536851082e-01       7.073199426750e+01 
       4.931349462422e-01       6.626484176090e+01 
       5.127913463570e-01       6.201443757905e+01 
       5.339520945298e-01       5.796555613338e+01 
       5.569207090568e-01       5.401356441196e+01 
       5.821102119721e-01       5.017694212543e+01 
       6.101012442259e-01       4.644335740873e+01 
       6.417428900476e-01       4.275088586509e+01 
       6.783380943777e-01       3.908115239810e+01 
       7.220087615281e-01       3.536741392870e+01 
       7.764725489269e-01       3.153766709377e+01 
       8.488268617819e-01       2.747852146984e+01 
       9.537494701958e-01       2.305044752133e+01 
       1.120788003903e+00       1.822503189876e+01 
       1.384282296793e+00       1.358572409066e+01 
       1.740604937631e+00       1.001335850897e+01 
       2.191257082955e+00       7.427919292836e+00 
       2.758629115880e+00       5.513177650595e+00 
       3.472908295650e+00       4.063571323358e+00 
       4.372132506225e+00       2.953733430720e+00 
       5.504188715817e+00       2.105152527848e+00 
       6.929363045653e+00       1.464846159193e+00 
       8.723551225720e+00       9.925115062841e-01 
       1.098230031915e+01       6.540205124949e-01 
