# Matter power spectrum P(k) at redshift z=0
# for k=2.03696e-07 to 10.2195 h/Mpc,
# number of wavenumbers equal to 139
#    1:k (h/Mpc)              2:P (Mpc/h)^3        
       2.036957418350e-07       1.176495026808e+00 
       2.564377456703e-07       1.467540499985e+00 
       3.228359945676e-07       1.830585824035e+00 
       4.064264374030e-07       2.283442574272e+00 
       5.116605700716e-07       2.848328614959e+00 
       6.441424938762e-07       3.552958141966e+00 
       8.109273543572e-07       4.431901382490e+00 
       1.020897053519e-06       5.528280660706e+00 
       1.285233243501e-06       6.895886038533e+00 
       1.618012790326e-06       8.601814324019e+00 
       2.036957418350e-06       1.072976091298e+01 
       2.564377456703e-06       1.338412595070e+01 
       3.228359945676e-06       1.669513623672e+01 
       4.064264374030e-06       2.082523409868e+01 
       5.116605700716e-06       2.597704655613e+01 
       6.441424938762e-06       3.240332550971e+01 
       8.109273543572e-06       4.041934614722e+01 
       1.020897053519e-05       5.041837088419e+01 
       1.285233243501e-05       6.289093561662e+01 
       1.618012790326e-05       7.844890072821e+01 
       2.036957418350e-05       9.785543936723e+01 
       2.564377456703e-05       1.220624195448e+02 
       3.228359945676e-05       1.522569849866e+02 
       4.064264374030e-05       1.899195626893e+02 
       5.116605700716e-05       2.368960300196e+02 
       6.441424938762e-05       2.954873596139e+02 
       8.109273543572e-05       3.685607038631e+02 
       1.020897053519e-04       4.596865175999e+02 
       1.285233243501e-04       5.733067966510e+02 
       1.618012790326e-04       7.149395276162e+02 
       2.036957418350e-04       8.914234435893e+02 
       2.564377456703e-04       1.111204263520e+03 
       3.228359945676e-04       1.384657594527e+03 
       4.064264374030e-04       1.724433748403e+03 
       5.116605700716e-04       2.145796648945e+03 
       6.441424938762e-04       2.666915021010e+03 
       8.109273543572e-04       3.309041512881e+03 
       1.020897053519e-03       4.096439039359e+03 
       1.285233243501e-03       5.055745391011e+03 
       1.618012790326e-03       6.214406109228e+03 
       2.036957418350e-03       7.597905908441e+03 
       2.564377456703e-03       9.225256375005e+03 
       3.228359945676e-03       1.110245299377e+04 
       4.064264374030e-03       1.321388001918e+04 
       5.116605700716e-03       1.551157524789e+04 
       6.441424938762e-03       1.790353496356e+04 
       8.109273543572e-03       2.024275652865e+04 
       1.020897053519e-02       2.231937031640e+04 
       1.285233243501e-02       2.386163102372e+04 
       1.618012790318e-02       2.455801134551e+04 
       2.036957378781e-02       2.412489703609e+04 
       2.564353495013e-02       2.244918596909e+04 
       3.225607010330e-02       1.979325540622e+04 
       3.987012894952e-02       1.703593632973e+04 
       4.599837266822e-02       1.530874786195e+04 
       5.050402869038e-02       1.427655575028e+04 
       5.426657196615e-02       1.351559836816e+04 
       5.764843942584e-02       1.287643280643e+04 
       6.081489800598e-02       1.229631744138e+04 
       6.385495186303e-02       1.174513562773e+04 
       6.682263601737e-02       1.120827589956e+04 
       6.975377855729e-02       1.067984260641e+04 
       7.267381877077e-02       1.015934824282e+04 
       7.560185364607e-02       9.649734933630e+03 
       7.855290573158e-02       9.155947579182e+03 
       8.153927608886e-02       8.683764048904e+03 
       8.457139294363e-02       8.238786202823e+03 
       8.765836625073e-02       7.825577884391e+03 
       9.080836252228e-02       7.446974183489e+03 
       9.402886533994e-02       7.103595943453e+03 
       9.732686061322e-02       6.793606614031e+03 
       1.007089707816e-01       6.512747192314e+03 
       1.041815534438e-01       6.254680781191e+03 
       1.077507746145e-01       6.011664869886e+03 
       1.114226635179e-01       5.775533030524e+03 
       1.152031537252e-01       5.538899731421e+03 
       1.190981140779e-01       5.296410094348e+03 
       1.231133719391e-01       5.045769300946e+03 
       1.272547307167e-01       4.788253507094e+03 
       1.315279832036e-01       4.528471652851e+03 
       1.359389220170e-01       4.273323602140e+03 
       1.404933482428e-01       4.030339488435e+03 
       1.451970792817e-01       3.805794034565e+03 
       1.500559568175e-01       3.603088045330e+03 
       1.550758557890e-01       3.421844458235e+03 
       1.602626952144e-01       3.258013024834e+03 
       1.656224517010e-01       3.105049171111e+03 
       1.711611764626e-01       2.955938890361e+03 
       1.768850166552e-01       2.805495501235e+03 
       1.828002418434e-01       2.652087293830e+03 
       1.889132764083e-01       2.498005178216e+03 
       1.952307387268e-01       2.348192515354e+03 
       2.017594879826e-01       2.207850924568e+03 
       2.085066795301e-01       2.080038043264e+03 
       2.154798298281e-01       1.964403045527e+03 
       2.226868921113e-01       1.857653195523e+03 
       2.301363441771e-01       1.755489766575e+03 
       2.378372899733e-01       1.654953843466e+03 
       2.457995770783e-01       1.555807216125e+03 
       2.540339327270e-01       1.460106609615e+03 
       2.625521217710e-01       1.370344740721e+03 
       2.713671309420e-01       1.287551825053e+03 
       2.804933850831e-01       1.210719416343e+03 
       2.899470027242e-01       1.137832941494e+03 
       2.997461006694e-01       1.067520141138e+03 
       3.099111603322e-01       9.998688532791e+02 
       3.204654727323e-01       9.358043760708e+02 
       3.314356847998e-01       8.758284360465e+02 
       3.428524776234e-01       8.194673285339e+02 
       3.547514185708e-01       7.658675462211e+02 
       3.671740454237e-01       7.146588517671e+02 
       3.801692643658e-01       6.660256491704e+02 
       3.937951789313e-01       6.200794528920e+02 
       4.081215206134e-01       5.765264011637e+02 
       4.232329351019e-01       5.350142309675e+02 
       4.392335107434e-01       4.954497681563e+02 
       4.562531529214e-01       4.577903350902e+02 
       4.744567745180e-01       4.218302523799e+02 
       4.940579128407e-01       3.873651503973e+02 
       5.153395461855e-01       3.542673839601e+02 
       5.386870901459e-01       3.223494102281e+02 
       5.646429575493e-01       2.913949569859e+02 
       5.940013674476e-01       2.611781079568e+02 
       6.279830316521e-01       2.314090015314e+02 
       6.685798831659e-01       2.017232379783e+02 
       7.192902954278e-01       1.716351697943e+02 
       7.868109145010e-01       1.405068203888e+02 
       8.850140175820e-01       1.077506649227e+02 
       1.041676739656e+00       7.419759000547e+01 
       1.287976652607e+00       4.525169101785e+01 
       1.619709586843e+00       2.626812812624e+01 
       2.039065876976e+00       1.506803127095e+01 
       2.567031766033e+00       8.570229288372e+00 
       3.231701523109e+00       4.837320452372e+00 
       4.068471170775e+00       2.711468019598e+00 
       5.121901744041e+00       1.510303323278e+00 
       6.448092262286e+00       8.364205601009e-01 
       8.117667206586e+00       4.607844513126e-01 
       1.021953753086e+01       2.526214007246e-01 
