# Matter power spectrum P(k) at redshift z=1
# for k=2.04189e-07 to 10.2443 h/Mpc,
# number of wavenumbers equal to 139
#    1:k (h/Mpc)              2:P (Mpc/h)^3        
       2.041890180820e-07       4.147430632478e-01 
       2.570587436727e-07       5.173436593660e-01 
       3.236177847335e-07       6.453259511505e-01 
       4.074106529095e-07       8.049689514662e-01 
       5.128996239834e-07       1.004104996968e+00 
       6.457023703324e-07       1.252504014884e+00 
       8.128911224672e-07       1.562352850044e+00 
       1.023369291096e-06       1.948853169467e+00 
       1.288345606210e-06       2.430967277384e+00 
       1.621931022832e-06       3.032348431009e+00 
       2.041890180820e-06       3.782501295179e+00 
       2.570587436727e-06       4.718229467302e+00 
       3.236177847335e-06       5.885441078791e+00 
       4.074106529095e-06       7.341401039048e+00 
       5.128996239834e-06       9.157540380196e+00 
       6.457023703324e-06       1.142296045880e+01 
       8.128911224672e-06       1.424880377751e+01 
       1.023369291096e-05       1.777370556758e+01 
       1.288345606210e-05       2.217059298818e+01 
       1.621931022832e-05       2.765516433938e+01 
       2.041890180820e-05       3.449646194126e+01 
       2.570587436727e-05       4.303005275792e+01 
       3.236177847335e-05       5.367445427157e+01 
       4.074106529095e-05       6.695159337628e+01 
       5.128996239834e-05       8.351226636255e+01 
       6.457023703324e-05       1.041677787028e+02 
       8.128911224672e-05       1.299291787222e+02 
       1.023369291096e-04       1.620557387631e+02 
       1.288345606210e-04       2.021145336564e+02 
       1.621931022832e-04       2.520530160669e+02 
       2.041890180820e-04       3.142861937241e+02 
       2.570587436727e-04       3.917990226710e+02 
       3.236177847335e-04       4.882623957022e+02 
       4.074106529095e-04       6.081569665491e+02 
       5.128996239834e-04       7.568927051458e+02 
       6.457023703324e-04       9.409046436981e+02 
       8.128911224672e-04       1.167699552837e+03 
       1.023369291096e-03       1.445821454631e+03 
       1.288345606210e-03       1.784666314078e+03 
       1.621931022832e-03       2.193974273374e+03 
       2.041890180820e-03       2.682802451863e+03 
       2.570587436727e-03       3.257941229340e+03 
       3.236177847335e-03       3.921613443736e+03 
       4.074106529095e-03       4.668426068556e+03 
       5.128996239834e-03       5.481545900245e+03 
       6.457023703324e-03       6.328495346501e+03 
       8.128911224672e-03       7.157148827377e+03 
       1.023369291096e-02       7.892741385789e+03 
       1.288345606210e-02       8.437964986330e+03 
       1.621931022823e-02       8.680646665935e+03 
       2.041890142310e-02       8.518109091056e+03 
       2.570563937523e-02       7.909297583912e+03 
       3.233461239155e-02       6.950456927538e+03 
       3.997432841857e-02       5.962161866390e+03 
       4.613247371993e-02       5.350262930923e+03 
       5.065777646931e-02       4.989567288251e+03 
       5.443515911210e-02       4.726064066427e+03 
       5.782961550864e-02       4.505636105184e+03 
       6.100744902720e-02       4.305544209717e+03 
       6.405816948156e-02       4.114836901365e+03 
       6.703609599402e-02       3.928182138699e+03 
       6.997723354365e-02       3.743433577648e+03 
       7.290714052087e-02       3.560448659837e+03 
       7.584499928129e-02       3.380379958961e+03 
       7.880589682296e-02       3.205158909181e+03 
       8.180218507154e-02       3.037065519604e+03 
       8.484433397054e-02       2.878350897262e+03 
       8.794148886147e-02       2.730909281113e+03 
       9.110184716682e-02       2.596009448425e+03 
       9.433292016397e-02       2.474099305042e+03 
       9.764171912474e-02       2.364697657005e+03 
       1.010348901468e-01       2.266386149142e+03 
       1.045188132399e-01       2.176914449727e+03 
       1.080996759202e-01       2.093428162147e+03 
       1.117835282539e-01       2.012818698354e+03 
       1.155763241833e-01       1.932170460141e+03 
       1.194839525909e-01       1.849246194218e+03 
       1.235122606570e-01       1.762913688161e+03 
       1.276670714624e-01       1.673396461360e+03 
       1.319541973883e-01       1.582247812328e+03 
       1.363794506007e-01       1.492008767390e+03 
       1.409486517292e-01       1.405603463368e+03 
       1.456676377410e-01       1.325612420089e+03 
       1.505422699338e-01       1.253612211009e+03 
       1.555784429319e-01       1.189760265043e+03 
       1.607820955378e-01       1.132750485175e+03 
       1.661592242751e-01       1.080184743406e+03 
       1.717159004462e-01       1.029302080492e+03 
       1.774582915210e-01       9.778760564742e+02 
       1.833926876696e-01       9.249681389913e+02 
       1.895255342533e-01       8.712037453256e+02 
       1.958634711058e-01       8.184002342376e+02 
       2.024133794695e-01       7.686824367224e+02 
       2.091824375078e-01       7.234943316392e+02 
       2.161781854172e-01       6.829785110695e+02 
       2.234086013057e-01       6.460161386873e+02 
       2.308821892237e-01       6.108998599202e+02 
       2.386080810322e-01       5.762815725542e+02 
       2.465961542097e-01       5.418493207257e+02 
       2.548571682531e-01       5.083142541422e+02 
       2.634029230723e-01       4.767405276013e+02 
       2.722464437559e-01       4.477220723907e+02 
       2.814021973851e-01       4.210064165526e+02 
       2.908863492916e-01       3.957995512439e+02 
       3.007170684447e-01       3.714449543244e+02 
       3.109148947360e-01       3.478759560912e+02 
       3.215031851091e-01       3.254712251237e+02 
       3.325086612302e-01       3.045296369702e+02 
       3.439620894010e-01       2.849378209247e+02 
       3.558991347258e-01       2.663395118852e+02 
       3.683614477930e-01       2.485303168840e+02 
       3.813980658654e-01       2.315772689476e+02 
       3.950672459039e-01       2.155740996029e+02 
       4.094389004263e-01       2.004350509160e+02 
       4.245978905966e-01       1.860041404087e+02 
       4.406485637485e-01       1.722340219352e+02 
       4.577211399272e-01       1.591306901397e+02 
       4.759809189097e-01       1.466283293922e+02 
       4.956419200179e-01       1.346423584703e+02 
       5.169877307624e-01       1.231313712091e+02 
       5.404045486551e-01       1.120345322769e+02 
       5.664358060252e-01       1.012725122759e+02 
       5.958770705463e-01       9.076888295934e+01 
       6.299508543896e-01       8.042214715510e+01 
       6.706514791746e-01       7.010601439707e+01 
       7.214803416586e-01       5.965182490486e+01 
       7.891373970183e-01       4.883832622042e+01 
       8.874986152640e-01       3.746147984205e+01 
       1.044369792636e+00       2.580600758543e+01 
       1.291114451160e+00       1.574191724411e+01 
       1.623628950551e+00       9.137254082018e+00 
       2.043999395950e+00       5.240791271211e+00 
       2.573242695800e+00       2.980522342927e+00 
       3.239520620421e+00       1.682168995821e+00 
       4.078314831080e+00       9.428401776615e-01 
       5.134294178143e+00       5.251344821189e-01 
       6.463693412492e+00       2.908083797134e-01 
       8.137307891032e+00       1.601987126182e-01 
       1.024426368761e+01       8.782397842510e-02 
