# Matter power spectrum P(k) at redshift z=2
# for k=2.36593e-07 to 11.8707 h/Mpc,
# number of wavenumbers equal to 139
#    1:k (h/Mpc)              2:P (Mpc/h)^3        
       2.365925886090e-07       1.259895873880e-01 
       2.978524220421e-07       1.571681906089e-01 
       3.749739830732e-07       1.960625528015e-01 
       4.720642760525e-07       2.445820904333e-01 
       5.942937131227e-07       3.051087424478e-01 
       7.481714575197e-07       3.806139054102e-01 
       9.418920602506e-07       4.748043062196e-01 
       1.185771849817e-06       5.923039738870e-01 
       1.492798314324e-06       7.388812433998e-01 
       1.879321732586e-06       9.217319363940e-01 
       2.365925886090e-06       1.149832618519e+00 
       2.978524220421e-06       1.434381276386e+00 
       3.749739830732e-06       1.789347045738e+00 
       4.720642760525e-06       2.232155973227e+00 
       5.942937131227e-06       2.784546471830e+00 
       7.481714575197e-06       3.473636448540e+00 
       9.418920602506e-06       4.333254466759e+00 
       1.185771849817e-05       5.405600227922e+00 
       1.492798314324e-05       6.743315782430e+00 
       1.879321732586e-05       8.412068911267e+00 
       2.365925886090e-05       1.049377505667e+01 
       2.978524220421e-05       1.309061507340e+01 
       3.749739830732e-05       1.633004427305e+01 
       4.720642760525e-05       2.037103516672e+01 
       5.942937131227e-05       2.541185347153e+01 
       7.481714575197e-05       3.169973549767e+01 
       9.418920602506e-05       3.954291513585e+01 
       1.185771849817e-04       4.932553813760e+01 
       1.492798314324e-04       6.152609232701e+01 
       1.879321732586e-04       7.674005688502e+01 
       2.365925886090e-04       9.570749237913e+01 
       2.978524220421e-04       1.193461812884e+02 
       3.749739830732e-04       1.487905531913e+02 
       4.720642760525e-04       1.854357862185e+02 
       5.942937131227e-04       2.309849279836e+02 
       7.481714575197e-04       2.874945391381e+02 
       9.418920602506e-04       3.574117015790e+02 
       1.185771849817e-03       4.435933002904e+02 
       1.492798314324e-03       5.492958226265e+02 
       1.879321732586e-03       6.781081984387e+02 
       2.365925886090e-03       8.337588914297e+02 
       2.978524220421e-03       1.019720313443e+03 
       3.749739830732e-03       1.238600997361e+03 
       4.720642760525e-03       1.491245391243e+03 
       5.942937131227e-03       1.773336007266e+03 
       7.481714575197e-03       2.081037793029e+03 
       9.418920602506e-03       2.398942184772e+03 
       1.185771849817e-02       2.703804368143e+03 
       1.492798314324e-02       2.961284392676e+03 
       1.879321732566e-02       3.126442993663e+03 
       2.365925806085e-02       3.150918163643e+03 
       2.978482249466e-02       3.003229919041e+03 
       3.745450144970e-02       2.704325838383e+03 
       4.612827946975e-02       2.375406599413e+03 
       5.292241933040e-02       2.173062228957e+03 
       5.796922143170e-02       2.053696831331e+03 
       6.221614580027e-02       1.967483648555e+03 
       6.604905762781e-02       1.895954920155e+03 
       6.964651937366e-02       1.830784314900e+03 
       7.310575867667e-02       1.767622230072e+03 
       7.648627191233e-02       1.704113229119e+03 
       7.982774586074e-02       1.639118642383e+03 
       8.315849501949e-02       1.572350096606e+03 
       8.649985949378e-02       1.504152882193e+03 
       8.986868332595e-02       1.435340698495e+03 
       9.327879946504e-02       1.367042487658e+03 
       9.674196452333e-02       1.300547206776e+03 
       1.002684713845e-01       1.237147520221e+03 
       1.038675642581e-01       1.177989368974e+03 
       1.075477277219e-01       1.123937028101e+03 
       1.113168926006e-01       1.075464396899e+03 
       1.151825852977e-01       1.032581350795e+03 
       1.191520376501e-01       9.948043313174e+02 
       1.232322685779e-01       9.611797589260e+02 
       1.274301451813e-01       9.303698094669e+02 
       1.317524286175e-01       9.008075738267e+02 
       1.362058085885e-01       8.709180877069e+02 
       1.407969292733e-01       8.393838444513e+02 
       1.455324088800e-01       8.054080507665e+02 
       1.504188545512e-01       7.689083869434e+02 
       1.554628740663e-01       7.305721788498e+02 
       1.606710855897e-01       6.917293241995e+02 
       1.660501265941e-01       6.540520313079e+02 
       1.716066630041e-01       6.191471339033e+02 
       1.773473995618e-01       5.881464162388e+02 
       1.832790923806e-01       5.614040730646e+02 
       1.894085646382e-01       5.383866454442e+02 
       1.957427263409e-01       5.178034259941e+02 
       2.022885990901e-01       4.979785600664e+02 
       2.090533467711e-01       4.773935574685e+02 
       2.160443130949e-01       4.552316212750e+02 
       2.232690669384e-01       4.316888384412e+02 
       2.307354564699e-01       4.078685378741e+02 
       2.384516731179e-01       3.852655512702e+02 
       2.464263265533e-01       3.650714355833e+02 
       2.546685320333e-01       3.476350549379e+02 
       2.631880117041e-01       3.323381030160e+02 
       2.719952118121e-01       3.179566378060e+02 
       2.811014382592e-01       3.033485572220e+02 
       2.905190135818e-01       2.880951987977e+02 
       3.002614592979e-01       2.726801282654e+02 
       3.103437087091e-01       2.580603677712e+02 
       3.207823567503e-01       2.449365807924e+02 
       3.315959554856e-01       2.332664998419e+02 
       3.428053665122e-01       2.223766715096e+02 
       3.544341851296e-01       2.115664274888e+02 
       3.665092560058e-01       2.006847835287e+02 
       3.790613067867e-01       1.901527305119e+02 
       3.921257354543e-01       1.804318424965e+02 
       4.057436004846e-01       1.715215572179e+02 
       4.199628819003e-01       1.630235734479e+02 
       4.348401091863e-01       1.546517190667e+02 
       4.504424935816e-01       1.465255947961e+02 
       4.668507655043e-01       1.388832195382e+02 
       4.841630163073e-01       1.316821690697e+02 
       5.025000006800e-01       1.247010741760e+02 
       5.220126137966e-01       1.179051643918e+02 
       5.428926935672e-01       1.113993211417e+02 
       5.653890627082e-01       1.051317241526e+02 
       5.898321181467e-01       9.899558708028e+01 
       6.166729286319e-01       9.300526310579e+01 
       6.465481184358e-01       8.711564316298e+01 
       6.803930994473e-01       8.124909487435e+01 
       7.196517570850e-01       7.535052678380e+01 
       7.666926731878e-01       6.930546977247e+01 
       8.257024625517e-01       6.296467731796e+01 
       9.047517125230e-01       5.609434129329e+01 
       1.020626284227e+00       4.837474680080e+01 
       1.206398295174e+00       3.964330842930e+01 
       1.495661333059e+00       3.088981274975e+01 
       1.881399752561e+00       2.366892088508e+01 
       2.368520676239e+00       1.796034080674e+01 
       2.981790812580e+00       1.340034201938e+01 
       3.753852226593e+00       9.767196494380e+00 
       4.725819960178e+00       6.921164416224e+00 
       5.949454839432e+00       4.753335701076e+00 
       7.489919883682e+00       3.161390654760e+00 
       9.429250473870e+00       2.040197198777e+00 
       1.187072303573e+01       1.282641293516e+00 
