# Matter power spectrum P(k) at redshift z=1
# for k=2.09511e-07 to 10.5111 h/Mpc,
# number of wavenumbers equal to 139
#    1:k (h/Mpc)              2:P (Mpc/h)^3        
       2.095105963443e-07       4.463388157431e-01 
       2.637582137780e-07       5.567556801801e-01 
       3.320519178945e-07       6.944878562077e-01 
       4.180285974724e-07       8.662927013730e-01 
       5.262668242147e-07       1.080599231685e+00 
       6.625306783881e-07       1.347921662211e+00 
       8.340767071160e-07       1.681375250205e+00 
       1.050040361974e-06       2.097319749139e+00 
       1.321922495098e-06       2.616162040953e+00 
       1.664201821502e-06       3.263357325360e+00 
       2.095105963443e-06       4.070657980296e+00 
       2.637582137780e-06       5.077671363115e+00 
       3.320519178945e-06       6.333802968472e+00 
       4.180285974724e-06       7.900680258029e+00 
       5.262668242147e-06       9.855176037067e+00 
       6.625306783881e-06       1.229317963470e+01 
       8.340767071160e-06       1.533430074955e+01 
       1.050040361974e-05       1.912773643214e+01 
       1.321922495098e-05       2.385958844601e+01 
       1.664201821502e-05       2.976198879436e+01 
       2.095105963443e-05       3.712447878013e+01 
       2.637582137780e-05       4.630819515868e+01 
       3.320519178945e-05       5.776355015770e+01 
       4.180285974724e-05       7.205225448302e+01 
       5.262668242147e-05       8.987472776249e+01 
       6.625306783881e-05       1.121041702455e+02 
       8.340767071160e-05       1.398288276592e+02 
       1.050040361974e-04       1.744042490826e+02 
       1.321922495098e-04       2.175175674868e+02 
       1.664201821502e-04       2.712659225048e+02 
       2.095105963443e-04       3.382508955023e+02 
       2.637582137780e-04       4.216898821966e+02 
       3.320519178945e-04       5.255431287883e+02 
       4.180285974724e-04       6.546510180001e+02 
       5.262668242147e-04       8.148697535231e+02 
       6.625306783881e-04       1.013185885698e+03 
       8.340767071160e-04       1.257783896672e+03 
       1.050040361974e-03       1.558033623901e+03 
       1.321922495098e-03       1.924325948031e+03 
       1.664201821502e-03       2.367578551451e+03 
       2.095105963443e-03       2.898191824819e+03 
       2.637582137780e-03       3.524382685341e+03 
       3.320519178945e-03       4.249710904081e+03 
       4.180285974724e-03       5.069748006089e+03 
       5.262668242147e-03       5.958672951019e+03 
       6.625306783881e-03       6.895713963305e+03 
       8.340767071160e-03       7.816537611540e+03 
       1.050040361974e-02       8.634163471845e+03 
       1.321922495098e-02       9.230446120821e+03 
       1.664201821498e-02       9.462817702224e+03 
       2.095105941981e-02       9.194271997408e+03 
       2.637566816688e-02       8.365799648520e+03 
       3.318506577706e-02       7.108977118793e+03 
       4.116403082770e-02       5.857457580547e+03 
       4.780508049905e-02       5.136640022161e+03 
       5.263748156858e-02       4.767873125626e+03 
       5.663626076926e-02       4.528068334451e+03 
       6.021311931885e-02       4.341236172612e+03 
       6.355268263463e-02       4.175587307963e+03 
       6.675312304877e-02       4.015314625506e+03 
       6.987350023481e-02       3.852203327522e+03 
       7.295270492994e-02       3.682513162893e+03 
       7.601820005045e-02       3.505554340362e+03 
       7.909050836292e-02       3.322856534787e+03 
       8.218571184870e-02       3.137534281500e+03 
       8.531693534776e-02       2.953702238274e+03 
       8.849527343422e-02       2.775900037445e+03 
       9.173039409264e-02       2.608538078378e+03 
       9.503094562299e-02       2.455396496617e+03 
       9.840483880747e-02       2.319212507440e+03 
       1.018594471974e-01       2.201381314561e+03 
       1.054017519891e-01       2.101782243004e+03 
       1.090384483772e-01       2.018734713362e+03 
       1.127760244878e-01       1.949094677268e+03 
       1.166208203874e-01       1.888515258379e+03 
       1.205790723769e-01       1.831905592088e+03 
       1.246569462859e-01       1.774102911657e+03 
       1.288605625055e-01       1.710712450957e+03 
       1.331960148463e-01       1.638973452652e+03 
       1.376693848747e-01       1.558421077402e+03 
       1.422867530924e-01       1.471092361778e+03 
       1.470542081351e-01       1.381118670132e+03 
       1.519778550423e-01       1.293742403837e+03 
       1.570638235743e-01       1.214009090441e+03 
       1.623182774994e-01       1.145502246761e+03 
       1.677474257495e-01       1.089454054545e+03 
       1.733575363171e-01       1.044434527233e+03 
       1.791549537577e-01       1.006703858825e+03 
       1.851461211511e-01       9.712359479589e+02 
       1.913376073722e-01       9.332799020617e+02 
       1.977361405239e-01       8.900344659852e+02 
       2.043486483991e-01       8.417186044864e+02 
       2.111823068724e-01       7.913913864875e+02 
       2.182445971812e-01       7.434695684713e+02 
       2.255433731530e-01       7.016516989312e+02 
       2.330869395865e-01       6.672800630434e+02 
       2.408841432140e-01       6.388792974231e+02 
       2.489444779760e-01       6.130530526776e+02 
       2.572782067656e-01       5.863666319462e+02 
       2.658965023645e-01       5.572724881985e+02 
       2.748116110525e-01       5.268496212006e+02 
       2.840370433736e-01       4.977633247094e+02 
       2.935877978655e-01       4.722062880396e+02 
       3.034806253203e-01       4.503817775204e+02 
       3.137343434764e-01       4.305992797411e+02 
       3.243702151895e-01       4.108236423563e+02 
       3.354124073880e-01       3.903783603591e+02 
       3.468885539703e-01       3.702666979682e+02 
       3.588304539403e-01       3.518531421535e+02 
       3.712749475643e-01       3.353718727745e+02 
       3.842650298073e-01       3.198551617574e+02 
       3.978512843393e-01       3.044189452694e+02 
       4.120937571123e-01       2.892411390441e+02 
       4.270644426748e-01       2.750014819612e+02 
       4.428506403671e-01       2.617428375993e+02 
       4.595595709911e-01       2.489089235380e+02 
       4.773248624469e-01       2.363154204347e+02 
       4.963158795783e-01       2.242475501812e+02 
       5.167515121357e-01       2.126705872247e+02 
       5.389211904990e-01       2.013006917700e+02 
       5.632180833096e-01       1.901590547862e+02 
       5.901937696851e-01       1.792022508701e+02 
       6.206527936874e-01       1.682411339461e+02 
       6.558259102922e-01       1.571838310200e+02 
       6.977097556439e-01       1.457971599244e+02 
       7.497861461032e-01       1.337883712748e+02 
       8.186675227440e-01       1.206754340460e+02 
       9.179808376441e-01       1.057384898198e+02 
       1.075414826544e+00       8.828906616535e+01 
       1.325263782984e+00       6.954457062874e+01 
       1.665931432816e+00       5.311571068733e+01 
       2.097238684281e+00       3.984370480964e+01 
       2.640266917214e+00       2.921314874772e+01 
       3.323899115924e+00       2.083302407113e+01 
       4.184541063277e+00       1.440364191479e+01 
       5.268025081255e+00       9.645542973942e+00 
       6.632050644761e+00       6.267669674626e+00 
       8.349257088996e+00       3.967012339525e+00 
       1.051109191894e+01       2.456590068363e+00 
