# Matter power spectrum P(k) at redshift z=0
# for k=2.08238e-07 to 10.4472 h/Mpc,
# number of wavenumbers equal to 139
#    1:k (h/Mpc)              2:P (Mpc/h)^3        
       2.082375979273e-07       1.000307479459e+00 
       2.621556037216e-07       1.247767058212e+00 
       3.300343513694e-07       1.556444056402e+00 
       4.154886317039e-07       1.941482653543e+00 
       5.230691967637e-07       2.421773448946e+00 
       6.585051039325e-07       3.020880262995e+00 
       8.290088091368e-07       3.768196213927e+00 
       1.043660256424e-06       4.700385786991e+00 
       1.313890418091e-06       5.863183644823e+00 
       1.654090035648e-06       7.313638429195e+00 
       2.082375979273e-06       9.122911629466e+00 
       2.621556037216e-06       1.137976882473e+01 
       3.300343513694e-06       1.419493455743e+01 
       4.154886317039e-06       1.770652444605e+01 
       5.230691967637e-06       2.208682094202e+01 
       6.585051039325e-06       2.755072496437e+01 
       8.290088091368e-06       3.436629766791e+01 
       1.043660256424e-05       4.286790875700e+01 
       1.313890418091e-05       5.347263490076e+01 
       1.654090035648e-05       6.670070972210e+01 
       2.082375979273e-05       8.320102268798e+01 
       2.621556037216e-05       1.037829060407e+02 
       3.300343513694e-05       1.294557458852e+02 
       4.154886317039e-05       1.614783146130e+02 
       5.230691967637e-05       2.014201539662e+02 
       6.585051039325e-05       2.512378411633e+02 
       8.290088091368e-05       3.133695286722e+02 
       1.043660256424e-04       3.908517101124e+02 
       1.313890418091e-04       4.874626122906e+02 
       1.654090035648e-04       6.078967031044e+02 
       2.082375979273e-04       7.579740909335e+02 
       2.621556037216e-04       9.448863477194e+02 
       3.300343513694e-04       1.177475564123e+03 
       4.154886317039e-04       1.466535519327e+03 
       5.230691967637e-04       1.825113259182e+03 
       6.585051039325e-04       2.268777791488e+03 
       8.290088091368e-04       2.815803837429e+03 
       1.043660256424e-03       3.487156417889e+03 
       1.313890418091e-03       4.306024762570e+03 
       1.654090035648e-03       5.296594219047e+03 
       2.082375979273e-03       6.481799353392e+03 
       2.621556037216e-03       7.879561623103e+03 
       3.300343513694e-03       9.497230349255e+03 
       4.154886317039e-03       1.132414695176e+04 
       5.230691967637e-03       1.327779581507e+04 
       6.585051039325e-03       1.534854590441e+04 
       8.290088091368e-03       1.737622022882e+04 
       1.043660256424e-02       1.916865430254e+04 
       1.313890418091e-02       2.046831495448e+04 
       1.654090035643e-02       2.096918322769e+04 
       2.082375953906e-02       2.038313612100e+04 
       2.621538715542e-02       1.859406657363e+04 
       3.298148951348e-02       1.589180457732e+04 
       4.087486949189e-02       1.320687343188e+04 
       4.738413132464e-02       1.165171883048e+04 
       5.213304947918e-02       1.083443416858e+04 
       5.607256097261e-02       1.028980923847e+04 
       5.960106388239e-02       9.858705866066e+03 
       6.289801905064e-02       9.474364492910e+03 
       6.605918226140e-02       9.103734769240e+03 
       6.914230187271e-02       8.729835012573e+03 
       7.218547599842e-02       8.345122366121e+03 
       7.521564765675e-02       7.948428084048e+03 
       7.825297573552e-02       7.543152846709e+03 
       8.131327349174e-02       7.135890112024e+03 
       8.440945801587e-02       6.735170696314e+03 
       8.755245674160e-02       6.350246109719e+03 
       9.075179838626e-02       5.989933440470e+03 
       9.401601156585e-02       5.661588640928e+03 
       9.735290138202e-02       5.370276107579e+03 
       1.007697458463e-01       5.118183289963e+03 
       1.042734380179e-01       4.904302627134e+03 
       1.078705903803e-01       4.724393698156e+03 
       1.115676123211e-01       4.571252530638e+03 
       1.153707680656e-01       4.435340741521e+03 
       1.192862201631e-01       4.305839472735e+03 
       1.233200621765e-01       4.172138601219e+03 
       1.274783432598e-01       4.025632568628e+03 
       1.317670866753e-01       3.861487698044e+03 
       1.361923038760e-01       3.679871549218e+03 
       1.407600054971e-01       3.486127167023e+03 
       1.454762104152e-01       3.289626009302e+03 
       1.503469539134e-01       3.101483519007e+03 
       1.553782959143e-01       2.931755274120e+03 
       1.605763301952e-01       2.786907987182e+03 
       1.659471954687e-01       2.668213849481e+03 
       1.714970891951e-01       2.571421051210e+03 
       1.772322849785e-01       2.487827266641e+03 
       1.831591543906e-01       2.406722126633e+03 
       1.892841940625e-01       2.318812201152e+03 
       1.956140588881e-01       2.219580725475e+03 
       2.021556021966e-01       2.111009900070e+03 
       2.089159237852e-01       2.000494240982e+03 
       2.159024267617e-01       1.897242961929e+03 
       2.231228842465e-01       1.807975157026e+03 
       2.305855171301e-01       1.734032162127e+03 
       2.382990843039e-01       1.671150105206e+03 
       2.462729870840e-01       1.611939780242e+03 
       2.545173899722e-01       1.549994810316e+03 
       2.630433604601e-01       1.483442157921e+03 
       2.718630313387e-01       1.415545324339e+03 
       2.809897899711e-01       1.351811289391e+03 
       2.904385003068e-01       1.295811979951e+03 
       3.002257651623e-01       1.246867727938e+03 
       3.103702386209e-01       1.201126862378e+03 
       3.208930015333e-01       1.155005890474e+03 
       3.318180173426e-01       1.108051683479e+03 
       3.431726912878e-01       1.062635185593e+03 
       3.549885641466e-01       1.020986723549e+03 
       3.673021831313e-01       9.828655997261e+02 
       3.801562089810e-01       9.462480759998e+02 
       3.936008422640e-01       9.098942468100e+02 
       4.076956875541e-01       8.744876649898e+02 
       4.225122282263e-01       8.410665225544e+02 
       4.381371685267e-01       8.093258657206e+02 
       4.546770329898e-01       7.782945526503e+02 
       4.722646312679e-01       7.478693863785e+02 
       4.910683636329e-01       7.184402715561e+02 
       5.113059823949e-01       6.897246870214e+02 
       5.332655837339e-01       6.612733815953e+02 
       5.573387980123e-01       6.330690698209e+02 
       5.840755086444e-01       6.048341961383e+02 
       6.142786069868e-01       5.761500008408e+02 
       6.491778645449e-01       5.465993726647e+02 
       6.907714228480e-01       5.154465669886e+02 
       7.425503238935e-01       4.816077060520e+02 
       8.111585976371e-01       4.432616832358e+02 
       9.103082049463e-01       3.973853602013e+02 
       1.067760862081e+00       3.401410475938e+02 
       1.317050101801e+00       2.734879629743e+02 
       1.655802826810e+00       2.101433334871e+02 
       2.084492816366e+00       1.558370913189e+02 
       2.624220844549e+00       1.113322819946e+02 
       3.303698307301e+00       7.673359717649e+01 
       4.159109751963e+00       5.124514848936e+01 
       5.236008957187e+00       3.333452480977e+01 
       6.591744732584e+00       2.122865513643e+01 
       8.298514951910e+00       1.329561908060e+01 
       1.044721135311e+01       8.220707992207e+00 
