# Matter power spectrum P(k) at redshift z=1.5
# for k=2.2332e-07 to 11.2041 h/Mpc,
# number of wavenumbers equal to 139
#    1:k (h/Mpc)              2:P (Mpc/h)^3        
       2.233201972260e-07       2.365343124409e-01 
       2.811434712547e-07       2.947841642331e-01 
       3.539386603226e-07       3.673788490281e-01 
       4.455823736965e-07       4.578509806016e-01 
       5.609549732941e-07       5.706031277187e-01 
       7.062004707523e-07       7.111220523423e-01 
       8.890537184511e-07       8.862457071847e-01 
       1.119252318608e-06       1.104495984554e+00 
       1.409055186105e-06       1.376493408612e+00 
       1.773895380408e-06       1.715473951615e+00 
       2.233201972260e-06       2.137933119088e+00 
       2.811434712547e-06       2.664428648526e+00 
       3.539386603226e-06       3.320580875209e+00 
       4.455823736965e-06       4.138319438613e+00 
       5.609549732941e-06       5.157436977577e+00 
       7.062004707523e-06       6.427525390620e+00 
       8.890537184511e-06       8.010388816349e+00 
       1.119252318608e-05       9.983050620711e+00 
       1.409055186105e-05       1.244150047694e+01 
       1.773895380408e-05       1.550536335364e+01 
       2.233201972260e-05       1.932371662840e+01 
       2.811434712547e-05       2.408233643467e+01 
       3.539386603226e-05       3.001272196604e+01 
       4.455823736965e-05       3.740332921866e+01 
       5.609549732941e-05       4.661354569300e+01 
       7.062004707523e-05       5.809105633149e+01 
       8.890537184511e-05       7.239338710470e+01 
       1.119252318608e-04       9.021455967517e+01 
       1.409055186105e-04       1.124179294913e+02 
       1.773895380408e-04       1.400763689298e+02 
       2.233201972260e-04       1.745209117576e+02 
       2.811434712547e-04       2.173986378191e+02 
       3.539386603226e-04       2.707396836090e+02 
       4.455823736965e-04       3.370314438951e+02 
       5.609549732941e-04       4.192949428202e+02 
       7.062004707523e-04       5.211541497676e+02 
       8.890537184511e-04       6.468849753284e+02 
       1.119252318608e-03       8.014279179357e+02 
       1.409055186105e-03       9.903387943525e+02 
       1.773895380408e-03       1.219608703439e+03 
       2.233201972260e-03       1.495220513531e+03 
       2.811434712547e-03       1.822361882351e+03 
       3.539386603226e-03       2.204258558749e+03 
       4.455823736965e-03       2.640498830211e+03 
       5.609549732941e-03       3.120728564602e+03 
       7.062004707523e-03       3.635819943002e+03 
       8.890537184511e-03       4.155448549104e+03 
       1.119252318608e-02       4.636245612644e+03 
       1.409055186105e-02       5.016812423436e+03 
       1.773895380399e-02       5.219940639227e+03 
       2.233201929138e-02       5.166866049553e+03 
       2.811408558473e-02       4.814292373665e+03 
       3.536378012601e-02       4.215480813339e+03 
       4.371299447067e-02       3.592261276009e+03 
       5.043497540129e-02       3.222407006862e+03 
       5.537664608404e-02       3.018571695254e+03 
       5.950294667646e-02       2.878413000775e+03 
       6.321160283737e-02       2.765588883152e+03 
       6.668394418669e-02       2.664282689049e+03 
       7.001761382354e-02       2.566415798329e+03 
       7.327188647843e-02       2.467686346490e+03 
       7.648606191081e-02       2.366054895533e+03 
       7.968804299104e-02       2.261042525825e+03 
       8.289877519843e-02       2.153319863487e+03 
       8.613473459009e-02       2.044395052496e+03 
       8.940941199653e-02       1.936325879193e+03 
       9.273424396032e-02       1.831432764362e+03 
       9.611922105440e-02       1.732015494930e+03 
       9.957329903128e-02       1.640087528917e+03 
       1.031046845730e-01       1.557146318758e+03 
       1.067210384934e-01       1.483995456312e+03 
       1.104296229367e-01       1.420630515388e+03 
       1.142374095568e-01       1.366198230024e+03 
       1.181511598677e-01       1.319039892768e+03 
       1.221774853419e-01       1.276834121105e+03 
       1.263228925301e-01       1.236853167381e+03 
       1.305938169793e-01       1.196334495126e+03 
       1.349966487343e-01       1.152936248737e+03 
       1.395377515579e-01       1.105199408203e+03 
       1.442234775622e-01       1.052896888067e+03 
       1.490601786581e-01       9.971425892754e+02 
       1.540542160354e-01       9.401793963301e+02 
       1.592119687666e-01       8.848612455280e+02 
       1.645398425447e-01       8.339507934050e+02 
       1.700442795191e-01       7.894208529295e+02 
       1.757317701638e-01       7.519444165505e+02 
       1.816088680886e-01       7.207042644104e+02 
       1.876822086952e-01       6.935905427133e+02 
       1.939585325700e-01       6.677924390534e+02 
       2.004447144992e-01       6.406887100706e+02 
       2.071477990014e-01       6.107776769245e+02 
       2.140750432820e-01       5.782495762181e+02 
       2.212339685575e-01       5.448630711885e+02 
       2.286324207559e-01       5.131096870796e+02 
       2.362786417113e-01       4.850501049253e+02 
       2.441813521305e-01       4.613892258589e+02 
       2.523498478451e-01       4.412219808198e+02 
       2.607941111929e-01       4.225719332467e+02 
       2.695249398268e-01       4.034942273803e+02 
       2.785540958554e-01       3.831686645995e+02 
       2.878944790323e-01       3.622806196570e+02 
       2.975603287853e-01       3.423857180042e+02 
       3.075674612918e-01       3.247155196636e+02 
       3.179335496919e-01       3.093203674511e+02 
       3.286784580332e-01       2.951662222576e+02 
       3.398246429141e-01       2.810728113539e+02 
       3.513976413639e-01       2.666973764558e+02 
       3.634266697892e-01       2.526699139554e+02 
       3.759453675707e-01       2.397807932930e+02 
       3.889927312746e-01       2.281164377383e+02 
       4.026143032180e-01       2.170692460245e+02 
       4.168637041014e-01       2.061318685142e+02 
       4.318046380832e-01       1.954464748864e+02 
       4.475135574171e-01       1.854171783525e+02 
       4.640832650474e-01       1.760330289510e+02 
       4.816278789291e-01       1.669451383062e+02 
       5.002898198028e-01       1.580636105703e+02 
       5.202498858225e-01       1.495645647575e+02 
       5.417421791303e-01       1.414019521997e+02 
       5.650769238698e-01       1.334007375169e+02 
       5.906766338066e-01       1.255818889329e+02 
       6.191359137851e-01       1.179012769659e+02 
       6.513253722274e-01       1.102401862827e+02 
       6.885830707726e-01       1.025341465973e+02 
       7.330923098347e-01       9.462687000093e+01 
       7.886872961492e-01       8.632223147265e+01 
       8.627069844327e-01       7.730402786278e+01 
       9.703535120044e-01       6.712154764889e+01 
       1.142071590516e+00       5.544489913000e+01 
       1.412067020087e+00       4.337008151364e+01 
       1.775754972266e+00       3.314920805166e+01 
       2.235512579333e+00       2.500172121045e+01 
       2.814343503182e+00       1.849365222124e+01 
       3.543048553637e+00       1.333981356384e+01 
       4.460433859394e+00       9.344587457826e+00 
       5.615353533218e+00       6.342463994908e+00 
       7.069311259176e+00       4.171871872903e+00 
       8.899735588059e+00       2.666822093013e+00 
       1.120410329006e+01       1.663777440134e+00 
