# Matter power spectrum P(k) at redshift z=0.5
# for k=2.29034e-07 to 11.491 h/Mpc,
# number of wavenumbers equal to 139
#    1:k (h/Mpc)              2:P (Mpc/h)^3        
       2.290342535957e-07       3.888966110824e-01 
       2.883370420230e-07       4.851032211539e-01 
       3.629948293643e-07       6.051097602648e-01 
       4.569834150366e-07       7.548039383199e-01 
       5.753080339580e-07       9.415299873077e-01 
       7.242699035591e-07       1.174448980721e+00 
       9.118017865882e-07       1.464988289701e+00 
       1.147890439655e-06       1.827402226991e+00 
       1.445108444438e-06       2.279471383854e+00 
       1.819283743501e-06       2.843374970100e+00 
       2.290342535957e-06       3.546778953268e+00 
       2.883370420230e-06       4.424193379046e+00 
       3.629948293643e-06       5.518665457908e+00 
       4.569834150366e-06       6.883891468946e+00 
       5.753080339580e-06       8.586851063957e+00 
       7.242699035591e-06       1.071109315839e+01 
       9.118017865882e-06       1.336083450484e+01 
       1.147890439655e-05       1.666607180867e+01 
       1.445108444438e-05       2.078895773902e+01 
       1.819283743501e-05       2.593175278702e+01 
       2.290342535957e-05       3.234674133815e+01 
       2.883370420230e-05       4.034859502980e+01 
       3.629948293643e-05       5.032978314625e+01 
       4.569834150366e-05       6.277977268935e+01 
       5.753080339580e-05       7.830893360956e+01 
       7.242699035591e-05       9.767826989861e+01 
       9.118017865882e-05       1.218363326582e+02 
       1.147890439655e-04       1.519649254744e+02 
       1.445108444438e-04       1.895354536250e+02 
       1.819283743501e-04       2.363779273413e+02 
       2.290342535957e-04       2.947645688334e+02 
       2.883370420230e-04       3.675094525406e+02 
       3.629948293643e-04       4.580842641976e+02 
       4.569834150366e-04       5.707476866424e+02 
       5.753080339580e-04       7.106819700294e+02 
       7.242699035591e-04       8.841255172455e+02 
       9.118017865882e-04       1.098485138263e+03 
       1.147890439655e-03       1.362399046698e+03 
       1.445108444438e-03       1.685679397637e+03 
       1.819283743501e-03       2.078997816533e+03 
       2.290342535957e-03       2.553187984347e+03 
       2.883370420230e-03       3.118022623347e+03 
       3.629948293643e-03       3.780240941441e+03 
       4.569834150366e-03       4.540726342478e+03 
       5.753080339580e-03       5.390484735510e+03 
       7.242699035591e-03       6.305464671474e+03 
       9.118017865882e-03       7.240473092668e+03 
       1.147890439655e-02       8.122545155008e+03 
       1.445108444438e-02       8.846028846893e+03 
       1.819283743487e-02       9.275111054084e+03 
       2.290342479023e-02       9.266914010551e+03 
       2.883338071197e-02       8.734519201037e+03 
       3.626419821595e-02       7.754832993640e+03 
       4.475517617234e-02       6.705777317165e+03 
       5.150535812709e-02       6.072110735271e+03 
       5.649036946527e-02       5.711784315243e+03 
       6.066756032533e-02       5.458343643412e+03 
       6.442901301222e-02       5.251373406021e+03 
       6.795468357843e-02       5.064070880709e+03 
       7.134196257973e-02       4.882550272276e+03 
       7.465018490652e-02       4.699323444876e+03 
       7.791879780597e-02       4.510784473369e+03 
       8.117586995463e-02       4.316038064873e+03 
       8.444250940508e-02       4.116212242472e+03 
       8.773534565223e-02       3.913932879578e+03 
       9.106801324393e-02       3.712832576428e+03 
       9.445208384832e-02       3.517053420259e+03 
       9.789767611400e-02       3.330746499058e+03 
       1.014138683111e-01       3.157593110321e+03 
       1.050089853764e-01       3.000380321528e+03 
       1.086908031866e-01       2.860661663446e+03 
       1.124666966191e-01       2.738528651721e+03 
       1.163437484134e-01       2.632515643238e+03 
       1.203288300524e-01       2.539662916560e+03 
       1.244286622703e-01       2.455768595981e+03 
       1.286498604827e-01       2.375856668202e+03 
       1.329989689387e-01       2.294862759871e+03 
       1.374824863991e-01       2.208479088482e+03 
       1.421068854929e-01       2.114015159213e+03 
       1.468786274617e-01       2.011054436868e+03 
       1.518041737144e-01       1.901671165690e+03 
       1.568899954202e-01       1.790053814450e+03 
       1.621425822479e-01       1.681554861854e+03 
       1.675684512768e-01       1.581382692323e+03 
       1.731741570609e-01       1.493279437600e+03 
       1.789663037906e-01       1.418534855836e+03 
       1.849515604841e-01       1.355599346593e+03 
       1.911366801206e-01       1.300445618639e+03 
       1.975285236241e-01       1.247701846940e+03 
       2.041340895997e-01       1.192369592485e+03 
       2.109605507302e-01       1.131617050099e+03 
       2.180152977582e-01       1.065878162272e+03 
       2.253059920151e-01       9.986087675327e+02 
       2.328406275275e-01       9.346677831365e+02 
       2.406276038412e-01       8.780554820781e+02 
       2.486758108697e-01       8.301042278774e+02 
       2.569947273183e-01       7.889797206838e+02 
       2.655945345718e-01       7.507563594410e+02 
       2.744862484036e-01       7.116158326365e+02 
       2.836818714859e-01       6.700099746308e+02 
       2.931945705164e-01       6.273862601197e+02 
       3.030388828783e-01       5.868882944195e+02 
       3.132309592088e-01       5.509565054004e+02 
       3.237888501830e-01       5.196240997161e+02 
       3.347328483976e-01       4.907516291775e+02 
       3.460858997014e-01       4.619618799854e+02 
       3.578741030285e-01       4.326294221512e+02 
       3.701273242554e-01       4.041029487187e+02 
       3.828799586266e-01       3.780004699527e+02 
       3.961718890384e-01       3.544471518401e+02 
       4.100497057979e-01       3.321535682188e+02 
       4.245682802621e-01       3.100984230416e+02 
       4.397928246654e-01       2.886351514632e+02 
       4.558016311285e-01       2.686203360658e+02 
       4.726897771961e-01       2.499977684420e+02 
       4.905742356792e-01       2.320260309820e+02 
       5.096010730709e-01       2.145575123507e+02 
       5.299558373441e-01       1.979910740943e+02 
       5.518789645844e-01       1.822178839929e+02 
       5.756893591912e-01       1.668850455917e+02 
       6.018218218679e-01       1.520817881044e+02 
       6.308890364289e-01       1.377356483978e+02 
       6.637894875826e-01       1.236464115592e+02 
       7.019067424751e-01       1.097534206194e+02 
       7.475037295163e-01       9.583849707100e+01 
       8.045659915199e-01       8.168143300430e+01 
       8.807464588055e-01       6.696625586961e+01 
       9.919277738778e-01       5.141220562858e+01 
       1.169698323158e+00       3.543015551170e+01 
       1.448035083489e+00       2.167613582316e+01 
       1.821228573484e+00       1.265219348751e+01 
       2.292764961436e+00       7.295845768999e+00 
       2.886420000317e+00       4.169501674882e+00 
       3.633787487482e+00       2.363636386068e+00 
       4.574667409051e+00       1.330135046313e+00 
       5.759165051761e+00       7.435684871170e-01 
       7.250359234379e+00       4.131547554402e-01 
       9.127661484796e+00       2.282952013904e-01 
       1.149104499346e+01       1.255079304461e-01 
