# Matter power spectrum P(k) at redshift z=1
# for k=7.75466e-06 to 12.3077 h/Mpc,
# number of wavenumbers equal to 124
#    1:k (h/Mpc)              2:P (Mpc/h)^3        
       7.754659233365e-06       5.807398742214e+01 
       9.762537568687e-06       7.244033513131e+01 
       1.229030662882e-05       9.036043532417e+01 
       1.547257933376e-05       1.127132496526e+02 
       1.947882330927e-05       1.405949357477e+02 
       2.452238565589e-05       1.753723126426e+02 
       3.087185446001e-05       2.187497244571e+02 
       3.886536208892e-05       2.728513588037e+02 
       4.892859197233e-05       3.403237116309e+02 
       6.159744779727e-05       4.244617081193e+02 
       7.754659233365e-05       5.293629803896e+02 
       9.762537568687e-05       6.601144742785e+02 
       1.229030662882e-04       8.230139525481e+02 
       1.547257933376e-04       1.025824658535e+03 
       1.947882330927e-04       1.278052447966e+03 
       2.452238565589e-04       1.591218029598e+03 
       3.087185446001e-04       1.979069866426e+03 
       3.886536208892e-04       2.457648740772e+03 
       4.892859197233e-04       3.045088763195e+03 
       6.159744779727e-04       3.761049344111e+03 
       7.754659233365e-04       4.625690876795e+03 
       9.762537568687e-04       5.657910120796e+03 
       1.229030662882e-03       6.872034920703e+03 
       1.547257933376e-03       8.272539580744e+03 
       1.947882330927e-03       9.847596214563e+03 
       2.452238565589e-03       1.156195220888e+04 
       3.087185446001e-03       1.335025904625e+04 
       3.886536208892e-03       1.511101764959e+04 
       4.892859197233e-03       1.670483023996e+04 
       6.159744779727e-03       1.795995256710e+04 
       7.754659233365e-03       1.867504983337e+04 
       9.762537568687e-03       1.864176314439e+04 
       1.229030662882e-02       1.766996465924e+04 
       1.547257933026e-02       1.565894436700e+04 
       1.947881680515e-02       1.272407464264e+04 
       2.452051958274e-02       9.356391217583e+03 
       3.075567238441e-02       6.434143208271e+03 
       3.708741176303e-02       4.835249857664e+03 
       4.167192083039e-02       4.259197032476e+03 
       4.524689933089e-02       3.996579836431e+03 
       4.834507617228e-02       3.828271219547e+03 
       5.118627763759e-02       3.681968840333e+03 
       5.387874701407e-02       3.527774634661e+03 
       5.648413137331e-02       3.352907274393e+03 
       5.904140622057e-02       3.154205876195e+03 
       6.157722971314e-02       2.934517995668e+03 
       6.411100907182e-02       2.700764099666e+03 
       6.665761998029e-02       2.462209695300e+03 
       6.922897451195e-02       2.228715153781e+03 
       7.183497794273e-02       2.009979874630e+03 
       7.448414007430e-02       1.813657169638e+03 
       7.718398081355e-02       1.645320415857e+03 
       7.994130775916e-02       1.507825331171e+03 
       8.276241113209e-02       1.401402299719e+03 
       8.565320356467e-02       1.323874496243e+03 
       8.861932203738e-02       1.270751162432e+03 
       9.166620316801e-02       1.235899297761e+03 
       9.479913932324e-02       1.211471585932e+03 
       9.802332067044e-02       1.188894972916e+03 
       1.013438667735e-01       1.159855920302e+03 
       1.047658503458e-01       1.117722308308e+03 
       1.082943151188e-01       1.059077947842e+03 
       1.119342893476e-01       9.848199047674e+02 
       1.156907961841e-01       8.999526110141e+02 
       1.195688619581e-01       8.123506244421e+02 
       1.235735232786e-01       7.304855196639e+02 
       1.277098337887e-01       6.613168689229e+02 
       1.319828713562e-01       6.086013946227e+02 
       1.363977464496e-01       5.724961509182e+02 
       1.409596124302e-01       5.496720532243e+02 
       1.456736784784e-01       5.340677583356e+02 
       1.505452258610e-01       5.185828933918e+02 
       1.555796282456e-01       4.970675614917e+02 
       1.607823767618e-01       4.667087037553e+02 
       1.661591105212e-01       4.290984142882e+02 
       1.717156533218e-01       3.893590186081e+02 
       1.774580573051e-01       3.535571377052e+02 
       1.833926543937e-01       3.254550223392e+02 
       1.895261164413e-01       3.051948813364e+02 
       1.958655251777e-01       2.903337369210e+02 
       2.024184532479e-01       2.771491077457e+02 
       2.091930579418e-01       2.619754974081e+02 
       2.161981896212e-01       2.433970311166e+02 
       2.234435173933e-01       2.233549918884e+02 
       2.309396753035e-01       2.048912607707e+02 
       2.386984332777e-01       1.898825423582e+02 
       2.467328983067e-01       1.782289580130e+02 
       2.550577530481e-01       1.677980433014e+02 
       2.636895412647e-01       1.567900444185e+02 
       2.726470125546e-01       1.450644076930e+02 
       2.819515429614e-01       1.336133660597e+02 
       2.916276537749e-01       1.237202065913e+02 
       3.017036588447e-01       1.152337629576e+02 
       3.122124821313e-01       1.072507893282e+02 
       3.231927037115e-01       9.914900311923e+01 
       3.346899167404e-01       9.140106530807e+01 
       3.467585143295e-01       8.433076274014e+01 
       3.594640812168e-01       7.786862804365e+01 
       3.728866528706e-01       7.169913798925e+01 
       3.871252460515e-01       6.576031188513e+01 
       4.023042992404e-01       6.019292822569e+01 
       4.185830626039e-01       5.500210985742e+01 
       4.361696894631e-01       5.000461242413e+01 
       4.553430984911e-01       4.525645975534e+01 
       4.764882278456e-01       4.073575857271e+01 
       5.001555149802e-01       3.637668999985e+01 
       5.271667399023e-01       3.216301867938e+01 
       5.588155721324e-01       2.803393144805e+01 
       5.972762838082e-01       2.394978236824e+01 
       6.465055315020e-01       1.983434879285e+01 
       7.143646213629e-01       1.561746852116e+01 
       8.173435217637e-01       1.128062802411e+01 
       9.843791185285e-01       7.165149429506e+00 
       1.231021637479e+00       4.123594374872e+00 
       1.549450505156e+00       2.319110599215e+00 
       1.950640092220e+00       1.295132087759e+00 
       2.455710377992e+00       7.190191149223e-01 
       3.091556198860e+00       3.970192616131e-01 
       3.892038660734e+00       2.181234953243e-01 
       4.899786373684e+00       1.192858517490e-01 
       6.168465578193e+00       6.495844650090e-02 
       7.765638068165e+00       3.523502566202e-02 
       9.776359102809e+00       1.904097276512e-02 
       1.230770690935e+01       1.025390654142e-02 
