# Matter power spectrum P(k) at redshift z=1
# for k=2.07757e-07 to 10.4231 h/Mpc,
# number of wavenumbers equal to 139
#    1:k (h/Mpc)              2:P (Mpc/h)^3        
       2.077574685043e-07       3.403383318927e-01 
       2.615511565901e-07       4.266196603601e-01 
       3.292733975155e-07       5.347747153046e-01 
       4.145306475600e-07       6.703488435972e-01 
       5.218631661808e-07       8.402932279090e-01 
       6.569868013844e-07       1.053321288869e+00 
       8.270973794762e-07       1.320355440594e+00 
       1.041253909051e-06       1.655087105799e+00 
       1.310861006234e-06       2.074678702543e+00 
       1.650276232078e-06       2.600643595675e+00 
       2.077574685043e-06       3.259949124034e+00 
       2.615511565901e-06       4.086399257983e+00 
       3.292733975155e-06       5.122367768071e+00 
       4.145306475600e-06       6.420970752083e+00 
       5.218631661808e-06       8.048789874235e+00 
       6.569868013844e-06       1.008928587806e+01 
       8.270973794762e-06       1.264707725675e+01 
       1.041253909051e-05       1.585330318210e+01 
       1.310861006234e-05       1.987234514100e+01 
       1.650276232078e-05       2.491025084500e+01 
       2.077574685043e-05       3.122529022487e+01 
       2.615511565901e-05       3.914118057327e+01 
       3.292733975155e-05       4.906365062882e+01 
       4.145306475600e-05       6.150117644673e+01 
       5.218631661808e-05       7.709091967185e+01 
       6.569868013844e-05       9.663113355457e+01 
       8.270973794762e-05       1.211215708278e+02 
       1.041253909051e-04       1.518137139466e+02 
       1.310861006234e-04       1.902729105200e+02 
       1.650276232078e-04       2.384546411384e+02 
       2.077574685043e-04       2.987969872800e+02 
       2.615511565901e-04       3.743305660125e+02 
       3.292733975155e-04       4.688052170954e+02 
       4.145306475600e-04       5.868288876527e+02 
       5.218631661808e-04       7.340080573197e+02 
       6.569868013844e-04       9.170715572127e+02 
       8.270973794762e-04       1.143953276252e+03 
       1.041253909051e-03       1.423801519219e+03 
       1.310861006234e-03       1.766845690048e+03 
       1.650276232078e-03       2.183948881750e+03 
       2.077574685043e-03       2.685633694782e+03 
       2.615511565901e-03       3.280505368765e+03 
       3.292733975155e-03       3.972883921951e+03 
       4.145306475600e-03       4.759564122729e+03 
       5.218631661808e-03       5.625507690443e+03 
       6.569868013844e-03       6.538737891888e+03 
       8.270973794762e-03       7.444924737382e+03 
       1.041253909051e-02       8.262286470597e+03 
       1.310861006234e-02       8.879223795817e+03 
       1.650276232073e-02       9.160496256346e+03 
       2.077574658100e-02       8.974727090473e+03 
       2.615493460742e-02       8.260808398820e+03 
       3.290469990346e-02       7.132001496802e+03 
       4.076603573915e-02       5.985859709391e+03 
       4.722739094902e-02       5.312328903845e+03 
       5.194598921112e-02       4.952194389559e+03 
       5.586386089922e-02       4.708401299330e+03 
       5.937465052988e-02       4.512793778104e+03 
       6.265596614720e-02       4.336589512235e+03 
       6.580269308739e-02       4.165519079022e+03 
       6.887210588098e-02       3.992294684941e+03 
       7.190201551476e-02       3.813760205883e+03 
       7.491917627557e-02       3.629560743876e+03 
       7.794361471275e-02       3.441349934993e+03 
       8.099104618855e-02       3.252180010373e+03 
       8.407431199575e-02       3.065944613770e+03 
       8.720427850071e-02       2.886838525530e+03 
       9.039042347134e-02       2.718844188883e+03 
       9.364123168688e-02       2.565272206968e+03 
       9.696446950019e-02       2.428385315204e+03 
       1.003673798594e-01       2.309128663591e+03 
       1.038568234514e-01       2.206980065095e+03 
       1.074393823584e-01       2.119932391141e+03 
       1.111214370117e-01       2.044626857973e+03 
       1.149092237314e-01       1.976663436460e+03 
       1.188088779211e-01       1.911113603563e+03 
       1.228264665361e-01       1.843226850772e+03 
       1.269680124960e-01       1.769255036390e+03 
       1.312395130776e-01       1.687230761698e+03 
       1.356469539051e-01       1.597473166063e+03 
       1.401963198728e-01       1.502608262484e+03 
       1.448936041538e-01       1.407008941321e+03 
       1.497448163267e-01       1.315748426268e+03 
       1.547559905775e-01       1.233336960733e+03 
       1.599331948878e-01       1.162584450958e+03 
       1.652825420880e-01       1.103881768067e+03 
       1.708102036372e-01       1.055081024958e+03 
       1.765224269796e-01       1.012051457109e+03 
       1.824255573160e-01       9.698782501862e+02 
       1.885260646291e-01       9.244677631259e+02 
       1.948305767998e-01       8.740285994314e+02 
       2.013459196720e-01       8.197319506149e+02 
       2.080791649507e-01       7.651030779773e+02 
       2.150376868809e-01       7.143414817786e+02 
       2.222292287533e-01       6.703793497137e+02 
       2.296619804296e-01       6.336154058747e+02 
       2.373446682997e-01       6.018968224042e+02 
       2.452866593898e-01       5.717644128697e+02 
       2.534980817556e-01       5.403890490685e+02 
       2.619899638652e-01       5.071244559040e+02 
       2.707743964236e-01       4.736347302105e+02 
       2.798647210888e-01       4.424706300944e+02 
       2.892757518455e-01       4.151578715093e+02 
       2.990240365462e-01       3.912172526946e+02 
       3.091281684534e-01       3.687821419866e+02 
       3.196091607407e-01       3.462521269427e+02 
       3.304909011443e-01       3.235511447052e+02 
       3.418007097792e-01       3.018553490705e+02 
       3.535700312294e-01       2.821587395436e+02 
       3.658353034621e-01       2.642480934805e+02 
       3.786390625221e-01       2.471352306241e+02 
       3.920313659169e-01       2.302957873856e+02 
       4.060716532204e-01       2.141210269777e+02 
       4.208312164725e-01       1.990950379596e+02 
       4.363965368320e-01       1.850238521438e+02 
       4.528738773276e-01       1.714471031044e+02 
       4.703957395671e-01       1.583689287519e+02 
       4.891301595825e-01       1.459988401903e+02 
       5.092944584011e-01       1.341937697647e+02 
       5.311762233631e-01       1.227731142854e+02 
       5.551664928923e-01       1.117869933667e+02 
       5.818144876297e-01       1.011473409897e+02 
       6.119224302317e-01       9.074360356579e+01 
       6.467196312042e-01       8.050957904193e+01 
       6.882046143730e-01       7.030225494697e+01 
       7.398714983966e-01       5.996242302470e+01 
       8.083752928210e-01       4.927002313441e+01 
       9.074577216800e-01       3.801394100281e+01 
       1.064902857054e+00       2.641826112100e+01 
       1.313959229640e+00       1.624470487410e+01 
       1.651984715389e+00       9.471846834103e+00 
       2.079687874501e+00       5.455258808744e+00 
       2.618171789057e+00       3.115653621825e+00 
       3.296082997629e+00       1.766037932869e+00 
       4.149522645098e+00       9.941959943576e-01 
       5.223939504729e+00       5.562017352747e-01 
       6.576550192179e+00       3.093974034022e-01 
       8.279386158874e+00       1.712113421436e-01 
       1.042312962946e+01       9.428923825799e-02 
