# Matter power spectrum P(k) at redshift z=2.5
# for k=1.78147e-07 to 11.2551 h/Mpc,
# number of wavenumbers equal to 140
#    1:k (h/Mpc)              2:P (Mpc/h)^3        
       1.781465416245e-07       2.934744194401e-01 
       2.242732082743e-07       3.660751523435e-01 
       2.823432410811e-07       4.566361092711e-01 
       3.554490810453e-07       5.696003536075e-01 
       4.474838807269e-07       7.105100886042e-01 
       5.633488288153e-07       8.862785669424e-01 
       7.092141563001e-07       1.105529264951e+00 
       8.928477237703e-07       1.379018962817e+00 
       1.124028688317e-06       1.720165486965e+00 
       1.415068279308e-06       2.145706004796e+00 
       1.781465416245e-06       2.676518167632e+00 
       2.242732082743e-06       3.338644382014e+00 
       2.823432410811e-06       4.164569457079e+00 
       3.554490810453e-06       5.194814286412e+00 
       4.474838807269e-06       6.479923726432e+00 
       5.633488288153e-06       8.082946129761e+00 
       7.092141563001e-06       1.008252603709e+01 
       8.928477237703e-06       1.257676151519e+01 
       1.124028688317e-05       1.568801483820e+01 
       1.415068279308e-05       1.956891149793e+01 
       1.781465416245e-05       2.440981980993e+01 
       2.242732082743e-05       3.044817397556e+01 
       2.823432410811e-05       3.798008997978e+01 
       3.554490810453e-05       4.737482830327e+01 
       4.474838807269e-05       5.909278163473e+01 
       5.633488288153e-05       7.370780807794e+01 
       7.092141563001e-05       9.193488391432e+01 
       8.928477237703e-05       1.146641928025e+02 
       1.124028688317e-04       1.430028554142e+02 
       1.415068279308e-04       1.783254347760e+02 
       1.781465416245e-04       2.223339373225e+02 
       2.242732082743e-04       2.771269162939e+02 
       2.823432410811e-04       3.452748837576e+02 
       3.554490810453e-04       4.298947197273e+02 
       4.474838807269e-04       5.347083700955e+02 
       5.633488288153e-04       6.640613741269e+02 
       7.092141563001e-04       8.228689532802e+02 
       8.928477237703e-04       1.016460241149e+03 
       1.124028688317e-03       1.250301746964e+03 
       1.415068279308e-03       1.529538183596e+03 
       1.781465416245e-03       1.858122655243e+03 
       2.242732082743e-03       2.237345838680e+03 
       2.823432410811e-03       2.664099142442e+03 
       3.554490810453e-03       3.128897710512e+03 
       4.474838807269e-03       3.613437760583e+03 
       5.633488288153e-03       4.088422167482e+03 
       7.092141563001e-03       4.511818663425e+03 
       8.928477237703e-03       4.827935982096e+03 
       1.124028688317e-02       4.968564757546e+03 
       1.415068279308e-02       4.859747497418e+03 
       1.781465414658e-02       4.442309919811e+03 
       2.242729982634e-02       3.716754830403e+03 
       2.822976076578e-02       2.805760519094e+03 
       3.531989124025e-02       1.982214355348e+03 
       4.205718865290e-02       1.540844549854e+03 
       4.687924503325e-02       1.376654501906e+03 
       5.072399883820e-02       1.300927763512e+03 
       5.409620896468e-02       1.255386611816e+03 
       5.720950084556e-02       1.218654372648e+03 
       6.017204007193e-02       1.180685175467e+03 
       6.304666581845e-02       1.136365622748e+03 
       6.587369309741e-02       1.083454931061e+03 
       6.868101213740e-02       1.021740934762e+03 
       7.148911635615e-02       9.525517138266e+02 
       7.431383709549e-02       8.783396047108e+02 
       7.716793687822e-02       8.022508801381e+02 
       8.006208983815e-02       7.276777613408e+02 
       8.300551242308e-02       6.578319248864e+02 
       8.600638419410e-02       5.953907834582e+02 
       8.907213717305e-02       5.422572492168e+02 
       9.220965981051e-02       4.994454835483e+02 
       9.542544370819e-02       4.670713968863e+02 
       9.872569086939e-02       4.444020616659e+02 
       1.021163930527e-01       4.299216054622e+02 
       1.056033909815e-01       4.214035967292e+02 
       1.091924187451e-01       4.160312376304e+02 
       1.128891371661e-01       4.106423821390e+02 
       1.166991588858e-01       4.021604421877e+02 
       1.206280672419e-01       3.881879072913e+02 
       1.246814305599e-01       3.676124990506e+02 
       1.288648131808e-01       3.409844034146e+02 
       1.331837843477e-01       3.104465760890e+02 
       1.376439259455e-01       2.791684749767e+02 
       1.422508400054e-01       2.504669752454e+02 
       1.470101568326e-01       2.269463105258e+02 
       1.519275445841e-01       2.099356170201e+02 
       1.570087211034e-01       1.992972738238e+02 
       1.622594688038e-01       1.935165674684e+02 
       1.676856533854e-01       1.900187059999e+02 
       1.732932471634e-01       1.857961013455e+02 
       1.790883577866e-01       1.783809788704e+02 
       1.850772631353e-01       1.668534531205e+02 
       1.912664532091e-01       1.522685339317e+02 
       1.976626798636e-01       1.370972542624e+02 
       2.042730153293e-01       1.239640004573e+02 
       2.111049205697e-01       1.144491375555e+02 
       2.181663247116e-01       1.085309230494e+02 
       2.254657170339e-01       1.047447432113e+02 
       2.330122533522e-01       1.009429408082e+02 
       2.408158791095e-01       9.546249378301e+01 
       2.488874721173e-01       8.810842098372e+01 
       2.572390087280e-01       8.015099250125e+01 
       2.658837583342e-01       7.326107875244e+01 
       2.748365125547e-01       6.828537880874e+01 
       2.841138574212e-01       6.477597810422e+01 
       2.937344994965e-01       6.148950940333e+01 
       3.037196603882e-01       5.746829577083e+01 
       3.140935589560e-01       5.282752285715e+01 
       3.248840072091e-01       4.846017952622e+01 
       3.361231552932e-01       4.500168013779e+01 
       3.478484343901e-01       4.221886757820e+01 
       3.601037658146e-01       3.942064962824e+01 
       3.729411333531e-01       3.634182542464e+01 
       3.864226592022e-01       3.336887718932e+01 
       4.006233905470e-01       3.084906120411e+01 
       4.156351089244e-01       2.858675603041e+01 
       4.315716446025e-01       2.627253440582e+01 
       4.485764616300e-01       2.401027395644e+01 
       4.668337672288e-01       2.198212587754e+01 
       4.865852711569e-01       2.005114307705e+01 
       5.081563451178e-01       1.814263184869e+01 
       5.319985059092e-01       1.635501002694e+01 
       5.587616903093e-01       1.461938162170e+01 
       5.894241347483e-01       1.292727749646e+01 
       6.255413137499e-01       1.126800451969e+01 
       6.697599456567e-01       9.614628167322e+00 
       7.269669000285e-01       7.937134217380e+00 
       8.070059255567e-01       6.204822580445e+00 
       9.304526599047e-01       4.421634574326e+00 
       1.130307716783e+00       2.766830488207e+00 
       1.417077463112e+00       1.592541223974e+00 
       1.783821467897e+00       9.006779148889e-01 
       2.245697119849e+00       5.057052260535e-01 
       2.827165170363e+00       2.821284053023e-01 
       3.559190076309e+00       1.564800299224e-01 
       4.480754832472e+00       8.632704285392e-02 
       5.640936122618e+00       4.739131686880e-02 
       7.101517831071e+00       2.589884529530e-02 
       8.940281259845e+00       1.409406984767e-02 
       1.125514726661e+01       7.639950446638e-03 
