# Matter power spectrum P(k) at redshift z=2.5
# for k=1.93136e-07 to 12.1985 h/Mpc,
# number of wavenumbers equal to 140
#    1:k (h/Mpc)              2:P (Mpc/h)^3        
       1.931363509484e-07       2.108035894965e-01 
       2.431442601501e-07       2.629529220892e-01 
       3.061004878349e-07       3.280031395762e-01 
       3.853576826979e-07       4.091457082734e-01 
       4.851365793785e-07       5.103616100328e-01 
       6.107507679705e-07       6.366166560724e-01 
       7.688896620709e-07       7.941051167047e-01 
       9.679747344468e-07       9.905536212420e-01 
       1.218607991170e-06       1.235600237490e+00 
       1.534136567099e-06       1.541267328093e+00 
       1.931363509484e-06       1.922551380543e+00 
       2.431442601501e-06       2.398158747771e+00 
       3.061004878349e-06       2.991423391462e+00 
       3.853576826979e-06       3.731451639454e+00 
       4.851365793785e-06       4.654550106229e+00 
       6.107507679705e-06       5.806006789746e+00 
       7.688896620709e-06       7.242312646947e+00 
       9.679747344468e-06       9.033932492785e+00 
       1.218607991170e-05       1.126876084927e+01 
       1.534136567099e-05       1.405643169751e+01 
       1.931363509484e-05       1.753369234538e+01 
       2.431442601501e-05       2.187110272488e+01 
       3.061004878349e-05       2.728138403260e+01 
       3.853576826979e-05       3.402981708032e+01 
       4.851365793785e-05       4.244718207033e+01 
       6.107507679705e-05       5.294583863221e+01 
       7.688896620709e-05       6.603966346690e+01 
       9.679747344468e-05       8.236868395044e+01 
       1.218607991170e-04       1.027293415414e+02 
       1.534136567099e-04       1.281113352114e+02 
       1.931363509484e-04       1.597418194507e+02 
       2.431442601501e-04       1.991371577497e+02 
       3.061004878349e-04       2.481611041248e+02 
       3.853576826979e-04       3.090856763943e+02 
       4.851365793785e-04       3.846465378529e+02 
       6.107507679705e-04       4.780784516149e+02 
       7.688896620709e-04       5.931103370402e+02 
       9.679747344468e-04       7.338983676583e+02 
       1.218607991170e-03       9.048790121628e+02 
       1.534136567099e-03       1.110500381939e+03 
       1.931363509484e-03       1.354693819614e+03 
       2.431442601501e-03       1.639937871918e+03 
       3.061004878349e-03       1.966043749737e+03 
       3.853576826979e-03       2.328658294247e+03 
       4.851365793785e-03       2.717448647041e+03 
       6.107507679705e-03       3.114305645262e+03 
       7.688896620709e-03       3.491868213687e+03 
       9.679747344468e-03       3.812788811780e+03 
       1.218607991170e-02       4.030662328499e+03 
       1.534136567095e-02       4.094589995086e+03 
       1.931363489046e-02       3.961340836495e+03 
       2.431428132157e-02       3.619688405822e+03 
       3.059117011448e-02       3.123670937245e+03 
       3.794021513599e-02       2.625677294112e+03 
       4.404630151512e-02       2.318952384258e+03 
       4.849156536841e-02       2.144816808153e+03 
       5.217171856473e-02       2.020601069938e+03 
       5.546438844235e-02       1.918045605993e+03 
       5.853906194859e-02       1.825693813560e+03 
       6.148592007170e-02       1.738186779965e+03 
       6.435924010685e-02       1.652989976350e+03 
       6.719477608310e-02       1.569126229582e+03 
       7.001778291263e-02       1.486567192935e+03 
       7.284713766740e-02       1.405873256842e+03 
       7.569763561399e-02       1.327936539062e+03 
       7.858135350346e-02       1.253772822947e+03 
       8.150850143209e-02       1.184346316914e+03 
       8.448797775342e-02       1.120423403242e+03 
       8.752774316578e-02       1.062459605771e+03 
       9.063508015161e-02       1.010523743713e+03 
       9.381677714929e-02       9.642640490398e+02 
       9.707926178193e-02       9.229202156737e+02 
       1.004286986669e-01       8.853856416406e+02 
       1.038710620096e-01       8.503234509465e+02 
       1.074121898762e-01       8.163329295855e+02 
       1.110578249313e-01       7.821535315751e+02 
       1.148136450605e-01       7.468761121774e+02 
       1.186852863932e-01       7.101157852776e+02 
       1.226783606482e-01       6.720952903867e+02 
       1.267984683196e-01       6.335989130881e+02 
       1.310512089623e-01       5.957906270899e+02 
       1.354421896565e-01       5.599300940756e+02 
       1.399770326225e-01       5.270568408999e+02 
       1.446613828809e-01       4.977251480831e+02 
       1.495009168120e-01       4.718615034081e+02 
       1.545013524378e-01       4.487878798610e+02 
       1.596684622332e-01       4.274186323498e+02 
       1.650080892600e-01       4.065933619783e+02 
       1.705261674118e-01       3.854537092312e+02 
       1.762287465506e-01       3.637264198960e+02 
       1.821220233222e-01       3.417824931520e+02 
       1.882123784489e-01       3.204269088515e+02 
       1.945064213272e-01       3.005062819306e+02 
       2.010110428169e-01       2.825188968585e+02 
       2.077334771935e-01       2.664122657606e+02 
       2.146813743786e-01       2.516595750860e+02 
       2.218628837611e-01       2.375704319703e+02 
       2.292867512083e-01       2.236667085428e+02 
       2.369624312523e-01       2.099047180729e+02 
       2.449002169639e-01       1.966089238533e+02 
       2.531113907219e-01       1.841767731668e+02 
       2.616084000110e-01       1.727770240219e+02 
       2.704050636053e-01       1.622568804553e+02 
       2.795168151093e-01       1.523024612743e+02 
       2.889609929899e-01       1.426971786600e+02 
       2.987571891258e-01       1.334519036962e+02 
       3.089276718343e-01       1.247105882890e+02 
       3.194979047274e-01       1.165547103049e+02 
       3.304971902579e-01       1.089155126977e+02 
       3.419594774108e-01       1.016634401829e+02 
       3.539243881912e-01       9.474109607776e+01 
       3.664385397303e-01       8.817674515465e+01 
       3.795572717754e-01       8.198978087091e+01 
       3.933469393070e-01       7.613839507076e+01 
       4.078880075144e-01       7.057042794160e+01 
       4.232793095176e-01       6.527247706439e+01 
       4.396440283357e-01       6.024021783429e+01 
       4.571383031523e-01       5.544536260406e+01 
       4.759639495750e-01       5.085898452200e+01 
       4.963878508183e-01       4.646431024887e+01 
       5.187725943652e-01       4.223599084969e+01 
       5.436269367116e-01       3.814545561465e+01 
       5.716931017170e-01       3.416317742819e+01 
       6.041067762066e-01       3.025131680279e+01 
       6.427109029064e-01       2.636370094027e+01 
       6.907204173078e-01       2.243949861810e+01 
       7.542433388465e-01       1.839915937020e+01 
       8.458705685310e-01       1.416518984614e+01 
       9.911689852140e-01       9.820198870761e+00 
       1.221658908317e+00       6.009228157962e+00 
       1.535729354586e+00       3.477874835337e+00 
       1.933328386357e+00       1.988039321885e+00 
       2.433916094495e+00       1.127160852705e+00 
       3.064118821466e+00       6.343896582271e-01 
       3.857497049101e+00       3.546739909774e-01 
       4.856301061034e+00       1.970902208122e-01 
       6.113720813059e+00       1.089160982406e-01 
       7.696718492175e+00       5.988425152949e-02 
       9.689594497225e+00       3.277215542286e-02 
       1.219847674254e+01       1.785772031458e-02 
