# Matter power spectrum P(k) at redshift z=0
# for k=2.38599e-07 to 11.9715 h/Mpc,
# number of wavenumbers equal to 139
#    1:k (h/Mpc)              2:P (Mpc/h)^3        
       2.385988813311e-07       6.760020502061e-01 
       3.003781949334e-07       8.432338126139e-01 
       3.781537427505e-07       1.051835955690e+00 
       4.760673563137e-07       1.312042829263e+00 
       5.993332925889e-07       1.636620592157e+00 
       7.545159121745e-07       2.041493539694e+00 
       9.498792554395e-07       2.546525373910e+00 
       1.195827132809e-06       3.176493746444e+00 
       1.505457165606e-06       3.962305885775e+00 
       1.895258282149e-06       4.942514948099e+00 
       2.385988813311e-06       6.165211483083e+00 
       3.003781949334e-06       7.690382805881e+00 
       3.781537427505e-06       9.592856018500e+00 
       4.760673563137e-06       1.196596904507e+01 
       5.993332925889e-06       1.492614973738e+01 
       7.545159121745e-06       1.861862761473e+01 
       9.498792554395e-06       2.322455827388e+01 
       1.195827132809e-05       2.896990962639e+01 
       1.505457165606e-05       3.613654519287e+01 
       1.895258282149e-05       4.507604674937e+01 
       2.385988813311e-05       5.622695157728e+01 
       3.003781949334e-05       7.013624426732e+01 
       3.781537427505e-05       8.748614616050e+01 
       4.760673563137e-05       1.091274943975e+02 
       5.993332925890e-05       1.361213041119e+02 
       7.545159121745e-05       1.697904661601e+02 
       9.498792554395e-05       2.117839465178e+02 
       1.195827132809e-04       2.641563046605e+02 
       1.505457165606e-04       3.294657871852e+02 
       1.895258282149e-04       4.108945718070e+02 
       2.385988813311e-04       5.123947274370e+02 
       3.003781949334e-04       6.388627688989e+02 
       3.781537427505e-04       7.963438359846e+02 
       4.760673563137e-04       9.922630735285e+02 
       5.993332925890e-04       1.235676737621e+03 
       7.545159121745e-04       1.537529165513e+03 
       9.498792554395e-04       1.910890220007e+03 
       1.195827132809e-03       2.371113054046e+03 
       1.505457165606e-03       2.935778190782e+03 
       1.895258282149e-03       3.624245473340e+03 
       2.385988813311e-03       4.456626660299e+03 
       3.003781949334e-03       5.451817356529e+03 
       3.781537427505e-03       6.624269088027e+03 
       4.760673563137e-03       7.979203083672e+03 
       5.993332925890e-03       9.456176810688e+03 
       7.545159121745e-03       1.109429830642e+04 
       9.498792554395e-03       1.278551396780e+04 
       1.195827132809e-02       1.440599565456e+04 
       1.505457165606e-02       1.577402199936e+04 
       1.895258282126e-02       1.665383397659e+04 
       2.385988726167e-02       1.679438055168e+04 
       3.003737139243e-02       1.603491054576e+04 
       3.777031741565e-02       1.448851044310e+04 
       4.649181495137e-02       1.279469329912e+04 
       5.329884633544e-02       1.176542976146e+04 
       5.836282993420e-02       1.116618471050e+04 
       6.262869184185e-02       1.073975365568e+04 
       6.648086109983e-02       1.039008713757e+04 
       7.009760323986e-02       1.007315405755e+04 
       7.357613240582e-02       9.765377440771e+03 
       7.697600216934e-02       9.453533136825e+03 
       8.033697070792e-02       9.130860453401e+03 
       8.368742244941e-02       8.795286742458e+03 
       8.704876210870e-02       8.448404215233e+03 
       9.043789273666e-02       8.094668268446e+03 
       9.386870142451e-02       7.740599527829e+03 
       9.735299498444e-02       7.393917776335e+03 
       1.009011134122e-01       7.062618684191e+03 
       1.045223456598e-01       6.754046249501e+03 
       1.082252192584e-01       6.474033048697e+03 
       1.120177066568e-01       6.226175054103e+03 
       1.159073749136e-01       6.011294744420e+03 
       1.199014958315e-01       5.827140576184e+03 
       1.240071278234e-01       5.668375858777e+03 
       1.282311771737e-01       5.526933440140e+03 
       1.325804440404e-01       5.392826893730e+03 
       1.370616570364e-01       5.255476510263e+03 
       1.416814992332e-01       5.105489981193e+03 
       1.464466277673e-01       4.936628456236e+03 
       1.513636887904e-01       4.747458741063e+03 
       1.564393292124e-01       4.542085316934e+03 
       1.616802064923e-01       4.329509299046e+03 
       1.670929976101e-01       4.121588921773e+03 
       1.726844082740e-01       3.930091289797e+03 
       1.784611833651e-01       3.763654531021e+03 
       1.844301195965e-01       3.625471601402e+03 
       1.905980813385e-01       3.512272953040e+03 
       1.969720205514e-01       3.414954904722e+03 
       2.035590017589e-01       3.321016137306e+03 
       2.103662329904e-01       3.218556531499e+03 
       2.174011036261e-01       3.100733418014e+03 
       2.246712300986e-01       2.968680862930e+03 
       2.321845104424e-01       2.831029293568e+03 
       2.399491887566e-01       2.699838280930e+03 
       2.479739307620e-01       2.584911837877e+03 
       2.562679118074e-01       2.489355469734e+03 
       2.648409189377e-01       2.408432331874e+03 
       2.737034689891e-01       2.332284342030e+03 
       2.828669451667e-01       2.251479712274e+03 
       2.923437552120e-01       2.162520186872e+03 
       3.021475151381e-01       2.069571144925e+03 
       3.122932636642e-01       1.980854134585e+03 
       3.227977140021e-01       1.902387626969e+03 
       3.336795516667e-01       1.833882443479e+03 
       3.449597896773e-01       1.769723691035e+03 
       3.566621961377e-01       1.704100195534e+03 
       3.688138141096e-01       1.635926177323e+03 
       3.814456004700e-01       1.568961776728e+03 
       3.945932198920e-01       1.507182445387e+03 
       4.082980434681e-01       1.450580000214e+03 
       4.226084207299e-01       1.395874887474e+03 
       4.375813219750e-01       1.340847794077e+03 
       4.532844897994e-01       1.286655213413e+03 
       4.697993026507e-01       1.235293879473e+03 
       4.872246527469e-01       1.186410660035e+03 
       5.056822995962e-01       1.138309417254e+03 
       5.253244211408e-01       1.090830034590e+03 
       5.463445260396e-01       1.044805311104e+03 
       5.689936644574e-01       9.998268825027e+02 
       5.936052854811e-01       9.551388383091e+02 
       6.206347782583e-01       9.108250282269e+02 
       6.507251255764e-01       8.664900598110e+02 
       6.848215491365e-01       8.215011832240e+02 
       7.243839644211e-01       7.752602145802e+02 
       7.718090494963e-01       7.266408725406e+02 
       8.313369370294e-01       6.739675708154e+02 
       9.111494617435e-01       6.143808637136e+02 
       1.028272668606e+00       5.430996096891e+02 
       1.216166923537e+00       4.543501156615e+02 
       1.508310956472e+00       3.528934804832e+02 
       1.897374582511e+00       2.585536551480e+02 
       2.388632844222e+00       1.806772343082e+02 
       3.007110535719e+00       1.212556719759e+02 
       3.785727869474e+00       7.883098335006e+01 
       4.765949017019e+00       5.004361659378e+01 
       5.999974328840e+00       3.122295856154e+01 
       7.553520152689e+00       1.924054385860e+01 
       9.509318468720e+00       1.175288682997e+01 
       1.197152266912e+01       7.134640193139e+00 
