# Matter power spectrum P(k) at redshift z=0
# for k=2.07289e-07 to 10.3997 h/Mpc,
# number of wavenumbers equal to 139
#    1:k (h/Mpc)              2:P (Mpc/h)^3        
       2.072892148487e-07       1.302591954358e+00 
       2.609616601639e-07       1.624831728531e+00 
       3.285312654843e-07       2.026788309385e+00 
       4.135963586871e-07       2.528182319764e+00 
       5.206869661767e-07       3.153612938369e+00 
       6.555060533098e-07       3.933764773212e+00 
       8.252332280967e-07       4.906913294572e+00 
       1.038907081508e-06       6.120802685340e+00 
       1.307906525403e-06       7.634988236737e+00 
       1.646556761081e-06       9.523758207300e+00 
       2.072892148487e-06       1.187977848593e+01 
       2.609616601639e-06       1.481863885663e+01 
       3.285312654843e-06       1.848452387654e+01 
       4.135963586871e-06       2.305728652409e+01 
       5.206869661767e-06       2.876127152503e+01 
       6.555060533098e-06       3.587632098685e+01 
       8.252332280967e-06       4.475150177187e+01 
       1.038907081508e-05       5.582222707344e+01 
       1.307906525403e-05       6.963161017985e+01 
       1.646556761081e-05       8.685709408397e+01 
       2.072892148487e-05       1.083436555051e+02 
       2.609616601639e-05       1.351451967694e+02 
       3.285312654843e-05       1.685761254401e+02 
       4.135963586871e-05       2.102755914632e+02 
       5.206869661767e-05       2.622874134637e+02 
       6.555060533099e-05       3.271593797242e+02 
       8.252332280967e-05       4.080663330120e+02 
       1.038907081508e-04       5.089621750909e+02 
       1.307906525403e-04       6.347664983893e+02 
       1.646556761081e-04       7.915916494800e+02 
       2.072892148487e-04       9.870150619198e+02 
       2.609616601639e-04       1.230398709819e+03 
       3.285312654843e-04       1.533251276404e+03 
       4.135963586871e-04       1.909618161064e+03 
       5.206869661767e-04       2.376470500394e+03 
       6.555060533098e-04       2.954049231615e+03 
       8.252332280967e-04       3.666095924088e+03 
       1.038907081508e-03       4.539821215324e+03 
       1.307906525403e-03       5.605281956387e+03 
       1.646556761081e-03       6.893758250294e+03 
       2.072892148487e-03       8.434789559402e+03 
       2.609616601639e-03       1.025121605950e+04 
       3.285312654843e-03       1.235187136939e+04 
       4.135963586871e-03       1.472189192645e+04 
       5.206869661767e-03       1.730972112894e+04 
       6.555060533099e-03       2.001193951098e+04 
       8.252332280967e-03       2.265724273218e+04 
       1.038907081508e-02       2.499121449206e+04 
       1.307906525403e-02       2.666936901924e+04 
       1.646556761078e-02       2.727676822298e+04 
       2.072892130804e-02       2.641530626361e+04 
       2.609603372840e-02       2.391573539291e+04 
       3.283507353353e-02       2.016918507100e+04 
       4.076647389597e-02       1.645068336530e+04 
       4.743353207346e-02       1.431840781422e+04 
       5.227226955960e-02       1.325315025605e+04 
       5.626567320581e-02       1.257530384997e+04 
       5.983270807138e-02       1.205461152128e+04 
       6.316037826078e-02       1.159518799257e+04 
       6.634775911232e-02       1.114924955103e+04 
       6.945429825317e-02       1.069178136541e+04 
       7.251906507726e-02       1.021124292960e+04 
       7.556960570631e-02       9.705377795535e+03 
       7.862647860437e-02       9.178780210971e+03 
       8.170577612878e-02       8.641016072090e+03 
       8.482061922213e-02       8.104856529788e+03 
       8.798209011830e-02       7.584509926142e+03 
       9.119983924422e-02       7.093898477558e+03 
       9.448249398070e-02       6.645091383766e+03 
       9.783794193384e-02       6.247011596633e+03 
       1.012735319005e-01       5.904495112988e+03 
       1.047962191739e-01       5.617732304576e+03 
       1.084126721787e-01       5.382091176240e+03 
       1.121293515942e-01       5.188342613068e+03 
       1.159525694988e-01       5.023362920647e+03 
       1.198885337609e-01       4.871441341060e+03 
       1.239433814072e-01       4.716285786168e+03 
       1.281232037100e-01       4.543637758290e+03 
       1.324340650844e-01       4.344087656261e+03 
       1.368820174493e-01       4.115355200363e+03 
       1.414731114152e-01       3.863180768708e+03 
       1.462134054741e-01       3.600241702494e+03 
       1.511089742398e-01       3.343144722541e+03 
       1.561659167110e-01       3.108271858742e+03 
       1.613903654792e-01       2.907674165636e+03 
       1.667884977714e-01       2.746102704205e+03 
       1.723665492012e-01       2.619823042412e+03 
       1.781308310854e-01       2.517479072425e+03 
       1.840877521772e-01       2.423095127587e+03 
       1.902438456610e-01       2.320951580326e+03 
       1.966058022582e-01       2.201127234143e+03 
       2.031805103060e-01       2.063388689958e+03 
       2.099751037043e-01       1.917101477011e+03 
       2.169970186828e-01       1.776698808480e+03 
       2.242540604385e-01       1.654872860918e+03 
       2.317544808402e-01       1.556915464602e+03 
       2.395070686128e-01       1.478764311742e+03 
       2.475212537181e-01       1.409515854890e+03 
       2.558072280626e-01       1.337439520445e+03 
       2.643760852295e-01       1.256614696639e+03 
       2.732399826738e-01       1.170002860547e+03 
       2.824123308159e-01       1.086483654766e+03 
       2.919080147749e-01       1.013972733308e+03 
       3.017436562194e-01       9.538715786719e+02 
       3.119379251239e-01       9.008132887314e+02 
       3.225119143236e-01       8.476380418176e+02 
       3.334895939648e-01       7.914929328171e+02 
       3.448983687267e-01       7.355597205400e+02 
       3.567697687205e-01       6.848262606982e+02 
       3.691403163015e-01       6.406020132942e+02 
       3.820526272762e-01       5.996966345055e+02 
       3.955568286690e-01       5.587598240146e+02 
       4.097124103956e-01       5.181764382610e+02 
       4.245906815136e-01       4.805137712482e+02 
       4.402780843598e-01       4.462472964272e+02 
       4.568807511109e-01       4.134154580117e+02 
       4.745309014265e-01       3.812015262636e+02 
       4.933960399378e-01       3.507390634187e+02 
       5.136925388753e-01       3.221332288299e+02 
       5.357063237538e-01       2.943623826422e+02 
       5.598255183803e-01       2.675767729645e+02 
       5.865941467433e-01       2.418643538910e+02 
       6.168048868019e-01       2.166853432267e+02 
       6.516687528660e-01       1.920310386527e+02 
       6.931471766622e-01       1.674947738284e+02 
       7.446538342338e-01       1.427450227850e+02 
       8.126573749787e-01       1.172573825525e+02 
       9.104675284429e-01       9.054369121957e+01 
       1.065223458987e+00       6.305532949789e+01 
       1.311399862283e+00       3.874123318973e+01 
       1.648282949128e+00       2.246078395551e+01 
       2.075015160922e+00       1.285576295511e+01 
       2.612289131973e+00       7.297610871953e+00 
       3.288677171100e+00       4.111827775281e+00 
       4.140199261885e+00       2.301211781033e+00 
       5.212202060678e+00       1.279989220331e+00 
       6.561773625594e+00       7.079679642462e-01 
       8.260783563701e+00       3.895651764610e-01 
       1.039971034967e+01       2.133450345634e-01 
