# Matter power spectrum P(k) at redshift z=1
# for k=1.83113e-07 to 11.567 h/Mpc,
# number of wavenumbers equal to 140
#    1:k (h/Mpc)              2:P (Mpc/h)^3        
       1.831128217661e-07       7.216782707524e-01 
       2.305253845467e-07       9.002095766853e-01 
       2.902142646694e-07       1.122906583763e+00 
       3.653581126575e-07       1.400695157678e+00 
       4.599586124297e-07       1.747204042425e+00 
       5.790535855613e-07       2.179433507339e+00 
       7.289852736537e-07       2.718589405333e+00 
       9.177380858264e-07       3.391123562506e+00 
       1.155363797618e-06       4.230031540110e+00 
       1.454516844688e-06       5.276471437009e+00 
       1.831128217661e-06       6.581783146338e+00 
       2.305253845467e-06       8.210007123329e+00 
       2.902142646694e-06       1.024102621808e+01 
       3.653581126575e-06       1.277448466483e+01 
       4.599586124297e-06       1.593467641660e+01 
       5.790535855613e-06       1.987664247246e+01 
       7.289852736537e-06       2.479377598291e+01 
       9.177380858264e-06       3.092730757409e+01 
       1.155363797618e-05       3.857813483962e+01 
       1.454516844689e-05       4.812157369262e+01 
       1.831128217661e-05       6.002574987581e+01 
       2.305253845467e-05       7.487452231597e+01 
       2.902142646694e-05       9.339604194830e+01 
       3.653581126575e-05       1.164983056276e+02 
       4.599586124297e-05       1.453133676244e+02 
       5.790535855613e-05       1.812522163395e+02 
       7.289852736537e-05       2.260726918968e+02 
       9.177380858264e-05       2.819631554826e+02 
       1.155363797618e-04       3.516448061133e+02 
       1.454516844688e-04       4.384953284371e+02 
       1.831128217661e-04       5.466954884651e+02 
       2.305253845467e-04       6.813975792400e+02 
       2.902142646694e-04       8.489090742773e+02 
       3.653581126575e-04       1.056875195336e+03 
       4.599586124297e-04       1.314430247926e+03 
       5.790535855613e-04       1.632273269442e+03 
       7.289852736537e-04       2.022616586884e+03 
       9.177380858264e-04       2.498949031708e+03 
       1.155363797618e-03       3.075477139632e+03 
       1.454516844689e-03       3.765894169708e+03 
       1.831128217661e-03       4.581139145964e+03 
       2.305253845467e-03       5.526213259940e+03 
       2.902142646694e-03       6.595934756225e+03 
       3.653581126575e-03       7.769884975999e+03 
       4.599586124297e-03       9.006403723934e+03 
       5.790535855613e-03       1.022740803288e+04 
       7.289852736537e-03       1.134847210024e+04 
       9.177380858264e-03       1.222934659684e+04 
       1.155363797618e-02       1.270627718381e+04 
       1.454516844688e-02       1.260192600297e+04 
       1.831128212864e-02       1.177292581592e+04 
       2.305249001576e-02       1.021000610065e+04 
       2.901298739240e-02       8.175477122210e+03 
       3.619158834073e-02       6.286986590564e+03 
       4.263026417247e-02       5.238207057212e+03 
       4.724792708260e-02       4.772043384870e+03 
       5.099226657486e-02       4.501068511801e+03 
       5.430583936422e-02       4.302013449818e+03 
       5.738051994767e-02       4.127661868932e+03 
       6.031559404209e-02       3.956034536948e+03 
       6.316964085735e-02       3.776526558788e+03 
       6.598067658603e-02       3.585032477431e+03 
       6.877523910765e-02       3.381765763172e+03 
       7.157297258683e-02       3.169964565767e+03 
       7.438914718317e-02       2.954878890781e+03 
       7.723613915224e-02       2.742840555458e+03 
       8.012434769684e-02       2.540384899957e+03 
       8.306278797583e-02       2.353462721591e+03 
       8.605948852876e-02       2.186800345410e+03 
       8.912176556326e-02       2.043448998735e+03 
       9.225641689439e-02       1.924530993070e+03 
       9.546986179354e-02       1.829159421159e+03 
       9.876824340760e-02       1.754498964910e+03 
       1.021575046417e-01       1.695958436120e+03 
       1.056434448289e-01       1.647551815940e+03 
       1.092317622449e-01       1.602497580859e+03 
       1.129280860628e-01       1.554105951788e+03 
       1.167380003759e-01       1.496900192311e+03 
       1.206670622841e-01       1.427756514277e+03 
       1.247208156068e-01       1.346708465709e+03 
       1.289048015107e-01       1.257054091431e+03 
       1.332245671456e-01       1.164593343038e+03 
       1.376856732680e-01       1.076150610295e+03 
       1.422937017488e-01       9.978314833410e+02 
       1.470542638171e-01       9.335410657467e+02 
       1.519730098582e-01       8.841238949471e+02 
       1.570556415680e-01       8.472375195908e+02 
       1.623079272506e-01       8.179512582736e+02 
       1.677357210401e-01       7.900653459128e+02 
       1.733449868195e-01       7.580276491494e+02 
       1.791418276156e-01       7.189198156598e+02 
       1.851325212543e-01       6.735770329884e+02 
       1.913235630912e-01       6.260715271590e+02 
       1.977217166803e-01       5.816815605906e+02 
       2.043340733236e-01       5.444157390321e+02 
       2.111681215748e-01       5.153387374518e+02 
       2.182318279542e-01       4.923612194774e+02 
       2.255337303980e-01       4.714887169790e+02 
       2.330830463260e-01       4.490174088022e+02 
       2.408897977058e-01       4.235851167014e+02 
       2.489649561460e-01       3.967216638389e+02 
       2.573206119177e-01       3.714255525614e+02 
       2.659701719552e-01       3.498717394864e+02 
       2.749285934041e-01       3.319939927821e+02 
       2.842126613101e-01       3.158634272231e+02 
       2.938413217511e-01       2.994423741103e+02 
       3.038360853915e-01       2.822473411828e+02 
       3.142215214628e-01       2.654326206503e+02 
       3.250258691579e-01       2.503121239339e+02 
       3.362818032471e-01       2.369739286048e+02 
       3.480274047767e-01       2.244182808890e+02 
       3.603074081308e-01       2.118730046871e+02 
       3.731748259923e-01       1.995949656580e+02 
       3.866930994376e-01       1.882044548855e+02 
       4.009389909638e-01       1.776790165216e+02 
       4.160065498691e-01       1.675174991441e+02 
       4.320126607125e-01       1.576025043336e+02 
       4.491049890082e-01       1.481870657543e+02 
       4.674736632785e-01       1.392230190227e+02 
       4.873689756656e-01       1.304864438220e+02 
       5.091291510947e-01       1.220078174658e+02 
       5.332257128801e-01       1.137575002884e+02 
       5.603412016360e-01       1.056024609848e+02 
       5.915099919591e-01       9.749104122844e+01 
       6.283908053502e-01       8.928083744522e+01 
       6.738355137600e-01       8.080691214978e+01 
       7.331736588565e-01       7.180892189501e+01 
       8.172537593397e-01       6.191985923033e+01 
       9.485678583167e-01       5.082584716115e+01 
       1.159911508476e+00       3.925440473686e+01 
       1.456273548532e+00       2.947916583872e+01 
       1.833245189142e+00       2.204576234386e+01 
       2.307918498235e+00       1.635280894646e+01 
       2.905497245449e+00       1.195411693366e+01 
       3.657804316194e+00       8.565919273879e+00 
       4.604902805027e+00       5.992590027003e+00 
       5.797229160090e+00       4.082043894600e+00 
       7.298279107632e+00       2.704004113844e+00 
       9.187989030964e+00       1.742606102751e+00 
       1.156699287437e+01       1.095179175073e+00 
