# Matter power spectrum P(k) at redshift z=1
# for k=2.15367e-07 to 10.8052 h/Mpc,
# number of wavenumbers equal to 139
#    1:k (h/Mpc)              2:P (Mpc/h)^3        
       2.153673923180e-07       3.900611379860e-01 
       2.711314830610e-07       4.865558327784e-01 
       3.413343139629e-07       6.069217239753e-01 
       4.297144417653e-07       7.570641518401e-01 
       5.409784305532e-07       9.443493401828e-01 
       6.810514934560e-07       1.177965794645e+00 
       8.573930318521e-07       1.469375104644e+00 
       1.079393875694e-06       1.832874266083e+00 
       1.358876379446e-06       2.286297111893e+00 
       1.710724005571e-06       2.851889264773e+00 
       2.153673923180e-06       3.557399532308e+00 
       2.711314830610e-06       4.437441290912e+00 
       3.413343139629e-06       5.535190638375e+00 
       4.297144417653e-06       6.904504615167e+00 
       5.409784305532e-06       8.612563382153e+00 
       6.810514934560e-06       1.074316592273e+01 
       8.573930318521e-06       1.340084083668e+01 
       1.079393875694e-05       1.671597365116e+01 
       1.358876379446e-05       2.085120171514e+01 
       1.710724005571e-05       2.600938944051e+01 
       2.153673923180e-05       3.244357323258e+01 
       2.711314830610e-05       4.046936021192e+01 
       3.413343139629e-05       5.048038147911e+01 
       4.297144417653e-05       6.296754319811e+01 
       5.409784305532e-05       7.854299059900e+01 
       6.810514934560e-05       9.796990272543e+01 
       8.573930318521e-05       1.221994658319e+02 
       1.079393875694e-04       1.524166160878e+02 
       1.358876379446e-04       1.900963600394e+02 
       1.710724005571e-04       2.370725919830e+02 
       2.153673923180e-04       2.956211693447e+02 
       2.711314830610e-04       3.685582897195e+02 
       3.413343139629e-04       4.593534752546e+02 
       4.297144417653e-04       5.722531328465e+02 
       5.409784305532e-04       7.124053810746e+02 
       6.810514934560e-04       8.859703508076e+02 
       8.573930318521e-04       1.100194575959e+03 
       1.079393875694e-03       1.363421201502e+03 
       1.358876379446e-03       1.684975644232e+03 
       1.710724005571e-03       2.074777885366e+03 
       2.153673923180e-03       2.542493770628e+03 
       2.711314830610e-03       3.096154978413e+03 
       3.413343139629e-03       3.740073154313e+03 
       4.297144417653e-03       4.471946277814e+03 
       5.409784305532e-03       5.269034617484e+03 
       6.810514934560e-03       6.118887363077e+03 
       8.573930318521e-03       6.966509440191e+03 
       1.079393875694e-02       7.738952438682e+03 
       1.358876379446e-02       8.336489185725e+03 
       1.710724005561e-02       8.638232658045e+03 
       2.153673874800e-02       8.526466472300e+03 
       2.711286612267e-02       7.944239681636e+03 
       3.410198808532e-02       6.984861111527e+03 
       4.211394582731e-02       5.995786440377e+03 
       4.851539083292e-02       5.400954693531e+03 
       5.323411968280e-02       5.059868154601e+03 
       5.718261352311e-02       4.816544790382e+03 
       6.073546175899e-02       4.615726342448e+03 
       6.406413021666e-02       4.433628063972e+03 
       6.726122830178e-02       4.258410928721e+03 
       7.038309651429e-02       4.084047335859e+03 
       7.346715032902e-02       3.907925161652e+03 
       7.653998943890e-02       3.729702295082e+03 
       7.962160268808e-02       3.550620254694e+03 
       8.272772810379e-02       3.372988207244e+03 
       8.587126244177e-02       3.199727489268e+03 
       8.906314615203e-02       3.033942712330e+03 
       9.231294211318e-02       2.878521542774e+03 
       9.562922704196e-02       2.735779815813e+03 
       9.901986367065e-02       2.607173389448e+03 
       1.024921943826e-01       2.493095931955e+03 
       1.060531815300e-01       2.392779291148e+03 
       1.097095105837e-01       2.304311493698e+03 
       1.134676667618e-01       2.224789882604e+03 
       1.173339923509e-01       2.150624767124e+03 
       1.213147297437e-01       2.077995529934e+03 
       1.254160537905e-01       2.003429025779e+03 
       1.296440961254e-01       1.924418138295e+03 
       1.340049635002e-01       1.839945984936e+03 
       1.385047517483e-01       1.750754592410e+03 
       1.431495567197e-01       1.659230090011e+03 
       1.479454833509e-01       1.568873244589e+03 
       1.528986539139e-01       1.483456082678e+03 
       1.580152164150e-01       1.406077058163e+03 
       1.633013540664e-01       1.338365539983e+03 
       1.687632967265e-01       1.280048306888e+03 
       1.744073351843e-01       1.229008685360e+03 
       1.802398391507e-01       1.181874288869e+03 
       1.862672798139e-01       1.135045807839e+03 
       1.924962578100e-01       1.085900956518e+03 
       1.989335374642e-01       1.033728852324e+03 
       2.055860881758e-01       9.799347489661e+02 
       2.124611338536e-01       9.273318135623e+02 
       2.195662113718e-01       8.788065453995e+02 
       2.269092391215e-01       8.359954492475e+02 
       2.344985968871e-01       7.986053396239e+02 
       2.423432185067e-01       7.646929009610e+02 
       2.504526990945e-01       7.317755771097e+02 
       2.588374190390e-01       6.982095238163e+02 
       2.675086875819e-01       6.640237610447e+02 
       2.764789095616e-01       6.306475956392e+02 
       2.857617799445e-01       5.997262214059e+02 
       2.953725121353e-01       5.719099936375e+02 
       3.053281078736e-01       5.465006491579e+02 
       3.156476789453e-01       5.221583393283e+02 
       3.263528341902e-01       4.980392304885e+02 
       3.374681497083e-01       4.743638383529e+02 
       3.490217462426e-01       4.519351585914e+02 
       3.610460061817e-01       4.311764604126e+02 
       3.735784745948e-01       4.117262960670e+02 
       3.866630059063e-01       3.929518993264e+02 
       4.003512429497e-01       3.746718372489e+02 
       4.147045525701e-01       3.571778819337e+02 
       4.297965988376e-01       3.406388712182e+02 
       4.457168233801e-01       3.248219028038e+02 
       4.625752432848e-01       3.094798284994e+02 
       4.805092078764e-01       2.946490967825e+02 
       4.996931456164e-01       2.803709866030e+02 
       5.203530141140e-01       2.664909198660e+02 
       5.427884054849e-01       2.529011839230e+02 
       5.674076136230e-01       2.395659600375e+02 
       5.947856729744e-01       2.263481330653e+02 
       6.257653243478e-01       2.131079844729e+02 
       6.616432881675e-01       1.996634304565e+02 
       7.045384149261e-01       1.857419389809e+02 
       7.581781500350e-01       1.709367780056e+02 
       8.297106799432e-01       1.545997125090e+02 
       9.339600015608e-01       1.357447457630e+02 
       1.100493334029e+00       1.134685202792e+02 
       1.361685814444e+00       8.957766223337e+01 
       1.712536708055e+00       6.856143922639e+01 
       2.155929661947e+00       5.129920165378e+01 
       2.714154561617e+00       3.731888304480e+01 
       3.416918149128e+00       2.627743099771e+01 
       4.301645087958e+00       1.787797431847e+01 
       5.415450313749e+00       1.177190585193e+01 
       6.817648016288e+00       7.532879061316e+00 
       8.582910336373e+00       4.707685817417e+00 
       1.080524392961e+01       2.887064535375e+00 
