# Matter power spectrum P(k) at redshift z=0.5
# for k=2.09827e-07 to 10.527 h/Mpc,
# number of wavenumbers equal to 139
#    1:k (h/Mpc)              2:P (Mpc/h)^3        
       2.098271979565e-07       5.155010149061e-01 
       2.641567915930e-07       6.430274671669e-01 
       3.325536976344e-07       8.021018609274e-01 
       4.186603007381e-07       1.000528636512e+00 
       5.270620915085e-07       1.248042923709e+00 
       6.635318605935e-07       1.556788162143e+00 
       8.353371208362e-07       1.941911876830e+00 
       1.051627128836e-06       2.422308837956e+00 
       1.323920116223e-06       3.021548064649e+00 
       1.666716677499e-06       3.769029152245e+00 
       2.098271979565e-06       4.701424649123e+00 
       2.641567915930e-06       5.864479244579e+00 
       3.325536976344e-06       7.315254025262e+00 
       4.186603007381e-06       9.124925881905e+00 
       5.270620915085e-06       1.138227936263e+01 
       6.635318605935e-06       1.419806219242e+01 
       8.353371208362e-06       1.771041796033e+01 
       1.051627128836e-05       2.209166213719e+01 
       1.323920116223e-05       2.755673312881e+01 
       1.666716677499e-05       3.437373153673e+01 
       2.098271979565e-05       4.287706181583e+01 
       2.641567915930e-05       5.348381541257e+01 
       3.325536976344e-05       6.671418793266e+01 
       4.186603007381e-05       8.321690991295e+01 
       5.270620915085e-05       1.038008952084e+02 
       6.635318605935e-05       1.294745737142e+02 
       8.353371208362e-05       1.614946693392e+02 
       1.051627128836e-04       2.014264857715e+02 
       1.323920116223e-04       2.512180147908e+02 
       1.666716677499e-04       3.132902636295e+02 
       2.098271979565e-04       3.906458797277e+02 
       2.641567915930e-04       4.869970381946e+02 
       3.325536976344e-04       6.069110720931e+02 
       4.186603007381e-04       7.559678707303e+02 
       5.270620915085e-04       9.409166163585e+02 
       6.635318605935e-04       1.169812335595e+03 
       8.353371208362e-04       1.452105946974e+03 
       1.051627128836e-03       1.798643438849e+03 
       1.323920116223e-03       2.221464311309e+03 
       1.666716677499e-03       2.733194814163e+03 
       2.098271979565e-03       3.345874790229e+03 
       2.641567915930e-03       4.069053401368e+03 
       3.325536976344e-03       4.906914128789e+03 
       4.186603007381e-03       5.854441082931e+03 
       5.270620915085e-03       6.880201975879e+03 
       6.635318605935e-03       7.962909774040e+03 
       8.353371208362e-03       9.027002890662e+03 
       1.051627128836e-02       9.971685763970e+03 
       1.323920116223e-02       1.065979353259e+04 
       1.666716677495e-02       1.092548390119e+04 
       2.098271959004e-02       1.060904513905e+04 
       2.641553070104e-02       9.641401969376e+03 
       3.323568670324e-02       8.175780464638e+03 
       4.123598876826e-02       6.717309323441e+03 
       4.791072601332e-02       5.878922462619e+03 
       5.276450166247e-02       5.453174591213e+03 
       5.677838972026e-02       5.178329150471e+03 
       6.036754276857e-02       4.965373015462e+03 
       6.371792169564e-02       4.777106671450e+03 
       6.692832158147e-02       4.595010016200e+03 
       7.005813914094e-02       4.409421683436e+03 
       7.314646841299e-02       4.215902080835e+03 
       7.622090543432e-02       4.013579649924e+03 
       7.930206600447e-02       3.804189497076e+03 
       8.240610071835e-02       3.591339280576e+03 
       8.554618739669e-02       3.379830115895e+03 
       8.873346319095e-02       3.174985448947e+03 
       9.197763152659e-02       2.982001323435e+03 
       9.528737113283e-02       2.805357322171e+03 
       9.867061963862e-02       2.648330148169e+03 
       1.021347748483e-01       2.512640126472e+03 
       1.056868403177e-01       2.398243976906e+03 
       1.093335322137e-01       2.303277515387e+03 
       1.130813586179e-01       2.224158468770e+03 
       1.169366788115e-01       2.155876103676e+03 
       1.209057477748e-01       2.092508848285e+03 
       1.249947496367e-01       2.027993040038e+03 
       1.292098228233e-01       1.957097908701e+03 
       1.335570790038e-01       1.876449032669e+03 
       1.380426174906e-01       1.785332653195e+03 
       1.426725364679e-01       1.685979206673e+03 
       1.474529422252e-01       1.583126989638e+03 
       1.523899574544e-01       1.482895785504e+03 
       1.574897295870e-01       1.391257677847e+03 
       1.627584401010e-01       1.312538899727e+03 
       1.682023156938e-01       1.248350080496e+03 
       1.738276422010e-01       1.197185463452e+03 
       1.796407821251e-01       1.154789243221e+03 
       1.856481966310e-01       1.115304756888e+03 
       1.918564728616e-01       1.073075146742e+03 
       1.982723574274e-01       1.024628596712e+03 
       2.049027969416e-01       9.700137686267e+02 
       2.117549865014e-01       9.126871463528e+02 
       2.188364270784e-01       8.578328137432e+02 
       2.261549928782e-01       8.099168621362e+02 
       2.337190098779e-01       7.707016015656e+02 
       2.415373469713e-01       7.386167643887e+02 
       2.496195214577e-01       7.097291077376e+02 
       2.579758210329e-01       6.799166543039e+02 
       2.666174450089e-01       6.471847210571e+02 
       2.755566682503e-01       6.126600349500e+02 
       2.848070323133e-01       5.794671486216e+02 
       2.943835696074e-01       5.503018930879e+02 
       3.043030681499e-01       5.255510466357e+02 
       3.145843868331e-01       5.032911260532e+02 
       3.252488342624e-01       4.810634154793e+02 
       3.363206284943e-01       4.579474415571e+02 
       3.478274608553e-01       4.350671754837e+02 
       3.598011951725e-01       4.140893468824e+02 
       3.722787452403e-01       3.953891448378e+02 
       3.853031898330e-01       3.778525099248e+02 
       3.989252086215e-01       3.603728208890e+02 
       4.132049580769e-01       3.431036134070e+02 
       4.282145606264e-01       3.268756056424e+02 
       4.440414643195e-01       3.117969752774e+02 
       4.607930637162e-01       2.972053444545e+02 
       4.786031905722e-01       2.828409704203e+02 
       4.976414495190e-01       2.690489743916e+02 
       5.181270122428e-01       2.558190149085e+02 
       5.403496384587e-01       2.428012027679e+02 
       5.647028740901e-01       2.300109840287e+02 
       5.917387094574e-01       2.174132567911e+02 
       6.222620790858e-01       2.047744403379e+02 
       6.575039418711e-01       1.919864809666e+02 
       6.994604764871e-01       1.787681648447e+02 
       7.516110263708e-01       1.647635060242e+02 
       8.205597659127e-01       1.493790358637e+02 
       9.199114751590e-01       1.317093130742e+02 
       1.077334080504e+00       1.108138784038e+02 
       1.327310767485e+00       8.797152224127e+01 
       1.668451784524e+00       6.757023620963e+01 
       2.100410168388e+00       5.084239411469e+01 
       2.644259572293e+00       3.730532294956e+01 
       3.328925570858e+00       2.657060016246e+01 
       4.190868995124e+00       1.832414446538e+01 
       5.275991475462e+00       1.223995275101e+01 
       6.642079740869e+00       7.942355929872e+00 
       8.361882972943e+00       5.027706735590e+00 
       1.052698696509e+01       3.118651183391e+00 
