# Matter power spectrum P(k) at redshift z=0
# for k=1.58535e-07 to 10.0169 h/Mpc,
# number of wavenumbers equal to 140
#    1:k (h/Mpc)              2:P (Mpc/h)^3        
       1.585345159904e-07       1.815620789992e+00 
       1.995831308268e-07       2.280316587624e+00 
       2.512602751633e-07       2.863948113419e+00 
       3.163179453775e-07       3.596956155653e+00 
       3.982206996422e-07       4.517572612675e+00 
       5.013301582820e-07       5.673814571580e+00 
       6.311372759601e-07       7.125988755207e+00 
       7.945547550367e-07       8.949836959682e+00 
       1.000285172178e-06       1.124048653386e+01 
       1.259284422295e-06       1.411741193541e+01 
       1.585345159904e-06       1.773066611909e+01 
       1.995831308268e-06       2.226870671778e+01 
       2.512602751633e-06       2.796822510819e+01 
       3.163179453775e-06       3.512649080883e+01 
       3.982206996422e-06       4.411685464863e+01 
       5.013301582820e-06       5.540821848876e+01 
       6.311372759601e-06       6.958948533299e+01 
       7.945547550367e-06       8.740026181783e+01 
       1.000285172178e-05       1.097694078944e+02 
       1.259284422295e-05       1.378634314000e+02 
       1.585345159904e-05       1.731472257552e+02 
       1.995831308268e-05       2.174602673611e+02 
       2.512602751633e-05       2.731121447120e+02 
       3.163179453775e-05       3.430021987956e+02 
       3.982206996422e-05       4.307691123087e+02 
       5.013301582820e-05       5.409774526723e+02 
       6.311372759601e-05       6.793493258072e+02 
       7.945547550367e-05       8.530501355358e+02 
       1.000285172178e-04       1.071037341702e+03 
       1.259284422295e-04       1.344478854193e+03 
       1.585345159904e-04       1.687241138116e+03 
       1.995831308268e-04       2.116432893017e+03 
       2.512602751633e-04       2.652964325188e+03 
       3.163179453775e-04       3.322042995106e+03 
       3.982206996422e-04       4.153482834357e+03 
       5.013301582820e-04       5.181673256529e+03 
       6.311372759601e-04       6.445030398289e+03 
       7.945547550367e-04       7.984570950533e+03 
       1.000285172178e-03       9.840735394694e+03 
       1.259284422295e-03       1.204749363602e+04 
       1.585345159904e-03       1.462350315337e+04 
       1.995831308268e-03       1.755978055777e+04 
       2.512602751633e-03       2.080551320121e+04 
       3.163179453775e-03       2.425387295202e+04 
       3.982206996422e-03       2.772622630863e+04 
       5.013301582820e-03       3.096372395633e+04 
       6.311372759601e-03       3.359673713977e+04 
       7.945547550367e-03       3.525431629026e+04 
       1.000285172178e-02       3.544166384180e+04 
       1.259284422295e-02       3.368771677043e+04 
       1.585345159666e-02       2.967847641976e+04 
       1.995830818324e-02       2.358060356227e+04 
       2.512450151940e-02       1.646734819065e+04 
       3.153009063724e-02       1.036955575967e+04 
       3.815149091519e-02       7.218344383330e+03 
       4.297733917999e-02       6.284214473603e+03 
       4.671529455365e-02       6.007718312434e+03 
       4.994265755784e-02       5.921272170497e+03 
       5.289624786844e-02       5.870507894075e+03 
       5.569170559752e-02       5.785593797005e+03 
       5.839449828019e-02       5.631595318525e+03 
       6.104583619986e-02       5.394371345613e+03 
       6.367381079064e-02       5.075223609068e+03 
       6.629881663944e-02       4.687556443704e+03 
       6.893645028807e-02       4.253516297545e+03 
       7.159917643843e-02       3.800150962170e+03 
       7.429734222148e-02       3.355336297451e+03 
       7.703982392137e-02       2.944047939568e+03 
       7.983445532703e-02       2.585597314277e+03 
       8.268832050088e-02       2.292236773359e+03 
       8.560795913758e-02       2.069139245203e+03 
       8.859951369654e-02       1.915326883856e+03 
       9.166883661661e-02       1.824850751146e+03 
       9.482156946130e-02       1.787580190342e+03 
       9.806320188335e-02       1.789389740783e+03 
       1.013991158060e-01       1.812181815074e+03 
       1.048346186163e-01       1.834705501362e+03 
       1.083749681196e-01       1.835109271616e+03 
       1.120253913097e-01       1.795374680914e+03 
       1.157910985499e-01       1.706441932581e+03 
       1.196772944528e-01       1.571722895671e+03 
       1.236891865426e-01       1.406777258230e+03 
       1.278319926518e-01       1.234616114853e+03 
       1.321109479185e-01       1.078536848301e+03 
       1.365313121966e-01       9.557801361765e+02 
       1.410983786569e-01       8.743890932841e+02 
       1.458174843378e-01       8.331729444585e+02 
       1.506940233883e-01       8.229599943065e+02 
       1.557334637386e-01       8.280745935887e+02 
       1.609413679273e-01       8.291832727888e+02 
       1.663234188125e-01       8.091410111429e+02 
       1.718854509018e-01       7.604524981033e+02 
       1.776334880542e-01       6.892848440177e+02 
       1.835737883447e-01       6.119341956289e+02 
       1.897128969465e-01       5.457729391840e+02 
       1.960577079918e-01       5.011718211484e+02 
       2.026155365211e-01       4.784973708895e+02 
       2.093942018551e-01       4.693813371623e+02 
       2.164021240285e-01       4.607535132690e+02 
       2.236484353369e-01       4.415599381106e+02 
       2.311431096111e-01       4.095314253004e+02 
       2.388971125657e-01       3.720684182343e+02 
       2.469225775505e-01       3.396637252256e+02 
       2.552330123256e-01       3.180570997810e+02 
       2.638435441935e-01       3.052484611729e+02 
       2.727712131239e-01       2.941010590637e+02 
       2.820353255944e-01       2.784522131507e+02 
       2.916578860977e-01       2.582907229499e+02 
       3.016641290944e-01       2.386993141587e+02 
       3.120831823568e-01       2.238041803923e+02 
       3.229489042562e-01       2.128069128600e+02 
       3.343009543271e-01       2.018273602048e+02 
       3.461861811213e-01       1.889138294495e+02 
       3.586604483886e-01       1.759653828451e+02 
       3.717910773311e-01       1.651878732896e+02 
       3.856601715991e-01       1.558517025574e+02 
       4.003692347412e-01       1.461411606922e+02 
       4.160457266137e-01       1.363403262645e+02 
       4.328526099795e-01       1.275721095008e+02 
       4.510026556214e-01       1.193037427775e+02 
       4.707805976452e-01       1.109671997221e+02 
       4.925787882879e-01       1.030716447569e+02 
       5.169572114173e-01       9.538607577249e+01 
       5.447499775176e-01       8.775138911291e+01 
       5.772664442323e-01       8.018127884492e+01 
       6.166995644614e-01       7.247902419598e+01 
       6.670234258758e-01       6.447326940275e+01 
       7.361015074010e-01       5.589629589041e+01 
       8.404272886838e-01       4.645494361515e+01 
       1.009569706918e+00       3.639144907362e+01 
       1.261368338854e+00       2.745096583993e+01 
       1.587573819119e+00       2.073761212947e+01 
       1.998633590312e+00       1.572742284078e+01 
       2.516130610665e+00       1.190045069674e+01 
       3.167620765159e+00       8.931426001714e+00 
       3.987798276186e+00       6.614449413799e+00 
       5.020340586999e+00       4.812774010966e+00 
       6.320234340835e+00       3.428552591273e+00 
       7.956703620171e+00       2.385227822326e+00 
       1.001689638155e+01       1.618285615455e+00 
