# Matter power spectrum P(k) at redshift z=0.5
# for k=2.05578e-07 to 10.3139 h/Mpc,
# number of wavenumbers equal to 139
#    1:k (h/Mpc)              2:P (Mpc/h)^3        
       2.055778185370e-07       7.519223038901e-01 
       2.588071398574e-07       9.379354852380e-01 
       3.258188851203e-07       1.169965260462e+00 
       4.101816741204e-07       1.459395375781e+00 
       5.163881330024e-07       1.820425727769e+00 
       6.500941429857e-07       2.270769032537e+00 
       8.184200366633e-07       2.832519837735e+00 
       1.030329781677e-06       3.533238513517e+00 
       1.297108344681e-06       4.407303402816e+00 
       1.632962656970e-06       5.497597466962e+00 
       2.055778185370e-06       6.857612171690e+00 
       2.588071398574e-06       8.554071823351e+00 
       3.258188851203e-06       1.067020709154e+01 
       4.101816741204e-06       1.330983828347e+01 
       5.163881330024e-06       1.660246862914e+01 
       6.500941429857e-06       2.070963731527e+01 
       8.184200366633e-06       2.583284366820e+01 
       1.030329781677e-05       3.222343069005e+01 
       1.297108344681e-05       4.019491171237e+01 
       1.632962656970e-05       5.013834271343e+01 
       2.055778185370e-05       6.254149005676e+01 
       2.588071398574e-05       7.801272536073e+01 
       3.258188851203e-05       9.731080257007e+01 
       4.101816741204e-05       1.213819441837e+02 
       5.163881330024e-05       1.514059891228e+02 
       6.500941429857e-05       1.888537344107e+02 
       8.184200366633e-05       2.355580247586e+02 
       1.030329781677e-04       2.938015707483e+02 
       1.297108344681e-04       3.664248177363e+02 
       1.632962656970e-04       4.569572573443e+02 
       2.055778185370e-04       5.697750175879e+02 
       2.588071398574e-04       7.102857823752e+02 
       3.258188851203e-04       8.851381998410e+02 
       4.101816741204e-04       1.102446056110e+03 
       5.163881330024e-04       1.372007642145e+03 
       6.500941429857e-04       1.705490127675e+03 
       8.184200366633e-04       2.116538845470e+03 
       1.030329781677e-03       2.620744147211e+03 
       1.297108344681e-03       3.235298758657e+03 
       1.632962656970e-03       3.978040696888e+03 
       2.055778185370e-03       4.865664223431e+03 
       2.588071398574e-03       5.910889418152e+03 
       3.258188851203e-03       7.118261806565e+03 
       4.101816741204e-03       8.478611392798e+03 
       5.163881330024e-03       9.961948092297e+03 
       6.500941429857e-03       1.147190105521e+04 
       8.184200366633e-03       1.297247178807e+04 
       1.030329781677e-02       1.429857843660e+04 
       1.297108344681e-02       1.526760901359e+04 
       1.632962656963e-02       1.566743663286e+04 
       2.055778150983e-02       1.530340441813e+04 
       2.588049755744e-02       1.410116304566e+04 
       3.255622997382e-02       1.225707218113e+04 
       4.027684593173e-02       1.039845901055e+04 
       4.653866184200e-02       9.284177661006e+03 
       5.113066236926e-02       8.654503161786e+03 
       5.495724056605e-02       8.208505495237e+03 
       5.839281434134e-02       7.841819643267e+03 
       6.160744347267e-02       7.510663728392e+03 
       6.469244160552e-02       7.193792672657e+03 
       6.770312773820e-02       6.880715185181e+03 
       7.067612214654e-02       6.567116811917e+03 
       7.363739318611e-02       6.252667715833e+03 
       7.660641424839e-02       5.939711380925e+03 
       7.959849009913e-02       5.632293293208e+03 
       8.262614309615e-02       5.335327627305e+03 
       8.569998188206e-02       5.053842305167e+03 
       8.882926860413e-02       4.792302770800e+03 
       9.202230204916e-02       4.554040899835e+03 
       9.528668378772e-02       4.340819129167e+03 
       9.862950735537e-02       4.152555714721e+03 
       1.020574952495e-01       3.987232785444e+03 
       1.055770995859e-01       3.841008913889e+03 
       1.091945768477e-01       3.708559373520e+03 
       1.129160437886e-01       3.583663302817e+03 
       1.167475194018e-01       3.460026333015e+03 
       1.206949564675e-01       3.332265345301e+03 
       1.247642652737e-01       3.196893967254e+03 
       1.289613314908e-01       3.053068386265e+03 
       1.332920297756e-01       2.902837452283e+03 
       1.377622344068e-01       2.750728716169e+03 
       1.423778280799e-01       2.602689889045e+03 
       1.471447098699e-01       2.464621949535e+03 
       1.520688033012e-01       2.340887929051e+03 
       1.571560654156e-01       2.233195160646e+03 
       1.624124977010e-01       2.140147834056e+03 
       1.678441597271e-01       2.057619974678e+03 
       1.734571863183e-01       1.979938778293e+03 
       1.792578090923e-01       1.901654462097e+03 
       1.852523831807e-01       1.819381879592e+03 
       1.914474199607e-01       1.732973425439e+03 
       1.978496266342e-01       1.645394045179e+03 
       2.044659535279e-01       1.561235781248e+03 
       2.113036500463e-01       1.484541086010e+03 
       2.183703303079e-01       1.416988482811e+03 
       2.256740496419e-01       1.357291894695e+03 
       2.332233933408e-01       1.302072211974e+03 
       2.410275793680e-01       1.247769275167e+03 
       2.490965771336e-01       1.192573566683e+03 
       2.574412450129e-01       1.137201705027e+03 
       2.660734900284e-01       1.083997741429e+03 
       2.750064541013e-01       1.035040688787e+03 
       2.842547325848e-01       9.906754275042e+02 
       2.938346325195e-01       9.494977098692e+02 
       3.037644803574e-01       9.096715723427e+02 
       3.140649919961e-01       8.704085005116e+02 
       3.247597221723e-01       8.323181885369e+02 
       3.358756160371e-01       7.964248709072e+02 
       3.474436937830e-01       7.629756643590e+02 
       3.594999105585e-01       7.312840853844e+02 
       3.720862502215e-01       7.006108541296e+02 
       3.852521353189e-01       6.709054921711e+02 
       3.990562711437e-01       6.425318579084e+02 
       4.135690955797e-01       6.155316943157e+02 
       4.288760900965e-01       5.895387134431e+02 
       4.450823404061e-01       5.643155876586e+02 
       4.623189531381e-01       5.399116161256e+02 
       4.807523023413e-01       5.162765251018e+02 
       5.005977210892e-01       4.931836390334e+02 
       5.221404175013e-01       4.704993052237e+02 
       5.457686016405e-01       4.481025504935e+02 
       5.720282090115e-01       4.257614398367e+02 
       6.017178866717e-01       4.032285685425e+02 
       6.360637737945e-01       3.801528904516e+02 
       6.770638840187e-01       3.560271064491e+02 
       7.282213532437e-01       3.300685405979e+02 
       7.962294283820e-01       3.010030131984e+02 
       8.949371818781e-01       2.667913414896e+02 
       1.052180358537e+00       2.251750499172e+02 
       1.299977348512e+00       1.786330080669e+02 
       1.634662180914e+00       1.361661469171e+02 
       2.057886639917e+00       1.006734942947e+02 
       2.590725688876e+00       7.190436939576e+01 
       3.261530404674e+00       4.953181403629e+01 
       4.106023507783e+00       3.298449872201e+01 
       5.169177335372e+00       2.133416063024e+01 
       6.507608705570e+00       1.347305459337e+01 
       8.192593969455e+00       8.348855838766e+00 
       1.031386473666e+01       5.098212865455e+00 
