# Matter power spectrum P(k) at redshift z=0
# for k=1.8281e-07 to 11.5487 h/Mpc,
# number of wavenumbers equal to 140
#    1:k (h/Mpc)              2:P (Mpc/h)^3        
       1.828099920870e-07       1.580324060985e+00 
       2.301441445683e-07       1.974950213761e+00 
       2.897343119726e-07       2.468119318714e+00 
       3.647538880110e-07       3.084438748858e+00 
       4.591979386678e-07       3.854660636118e+00 
       5.780959540324e-07       4.817216290581e+00 
       7.277796869867e-07       6.020133781809e+00 
       9.162203421352e-07       7.523434359819e+00 
       1.153453071517e-06       9.402127285523e+00 
       1.452111383044e-06       1.174995249393e+01 
       1.828099920870e-06       1.468405782143e+01 
       2.301441445683e-06       1.835084414347e+01 
       2.897343119726e-06       2.293327001761e+01 
       3.647538880110e-06       2.865998019159e+01 
       4.591979386678e-06       3.581671322473e+01 
       5.780959540324e-06       4.476055697444e+01 
       7.277796869867e-06       5.593776235109e+01 
       9.162203421352e-06       6.990600239221e+01 
       1.153453071517e-05       8.736218382170e+01 
       1.452111383044e-05       1.091771917918e+02 
       1.828099920870e-05       1.364392877096e+02 
       2.301441445683e-05       1.705082982365e+02 
       2.897343119726e-05       2.130832454145e+02 
       3.647538880110e-05       2.662866857682e+02 
       4.591979386678e-05       3.327697562384e+02 
       5.780959540324e-05       4.158427536399e+02 
       7.277796869867e-05       5.196369488369e+02 
       9.162203421352e-05       6.493041176263e+02 
       1.153453071517e-04       8.112606567380e+02 
       1.452111383044e-04       1.013482550285e+03 
       1.828099920870e-04       1.265854791177e+03 
       2.301441445683e-04       1.580572451736e+03 
       2.897343119726e-04       1.972578324406e+03 
       3.647538880110e-04       2.460002667461e+03 
       4.591979386678e-04       3.064546621234e+03 
       5.780959540324e-04       3.811729059996e+03 
       7.277796869867e-04       4.730886933164e+03 
       9.162203421352e-04       5.854699082387e+03 
       1.153453071517e-03       7.217714819138e+03 
       1.452111383044e-03       8.853279662214e+03 
       1.828099920870e-03       1.078849989157e+04 
       2.301441445683e-03       1.303653379629e+04 
       2.897343119726e-03       1.558634348001e+04 
       3.647538880110e-03       1.839051020695e+04 
       4.591979386678e-03       2.135021171733e+04 
       5.780959540324e-03       2.430077399020e+04 
       7.277796869867e-03       2.699926319010e+04 
       9.162203421352e-03       2.911653300855e+04 
       1.153453071517e-02       3.024161349267e+04 
       1.452111383044e-02       2.991960004635e+04 
       1.828099917892e-02       2.777081600990e+04 
       2.301438056202e-02       2.375394389425e+04 
       2.896692130105e-02       1.853946017528e+04 
       3.618649944321e-02       1.372360182110e+04 
       4.283130760229e-02       1.109710958929e+04 
       4.758711423915e-02       1.003044072681e+04 
       5.141529284680e-02       9.475856823699e+03 
       5.478995697294e-02       9.103601394814e+03 
       5.791442005538e-02       8.788813342896e+03 
       6.089288821210e-02       8.472432966370e+03 
       6.378642752255e-02       8.124722723633e+03 
       6.663446818627e-02       7.732992638722e+03 
       6.946442600738e-02       7.296364905305e+03 
       7.229652897482e-02       6.822715633044e+03 
       7.514645781279e-02       6.326171302775e+03 
       7.802689145224e-02       5.824635303425e+03 
       8.094846158178e-02       5.337294717622e+03 
       8.392036856472e-02       4.882273961638e+03 
       8.695079340150e-02       4.474671605449e+03 
       9.004718158655e-02       4.125165990428e+03 
       9.321644354545e-02       3.839246766376e+03 
       9.646509901398e-02       3.616982966161e+03 
       9.979938268739e-02       3.453150145147e+03 
       1.032253224493e-01       3.337577705782e+03 
       1.067487977709e-01       3.255743057830e+03 
       1.103755835158e-01       3.189851616707e+03 
       1.141113828612e-01       3.120737106099e+03 
       1.179618520486e-01       3.030734319775e+03 
       1.219326190130e-01       2.907185904905e+03 
       1.260292974991e-01       2.745633138785e+03 
       1.302574979776e-01       2.551401949991e+03 
       1.346228364842e-01       2.338592904678e+03 
       1.391309423733e-01       2.126450747089e+03 
       1.437874659028e-01       1.934252795767e+03 
       1.485980865112e-01       1.776469736361e+03 
       1.535685226193e-01       1.659587833044e+03 
       1.587045437684e-01       1.581007611350e+03 
       1.640119858937e-01       1.529787776036e+03 
       1.694967705215e-01       1.489179348488e+03 
       1.751649286761e-01       1.441216390115e+03 
       1.810226302826e-01       1.372847476101e+03 
       1.870762198590e-01       1.281232358447e+03 
       1.933322593223e-01       1.174894555758e+03 
       1.997975787750e-01       1.069336823166e+03 
       2.064793362238e-01       9.794210554728e+02 
       2.133850873060e-01       9.127863010766e+02 
       2.205228662831e-01       8.672090280696e+02 
       2.279012798243e-01       8.323926906012e+02 
       2.355296154640e-01       7.954557901570e+02 
       2.434179671037e-01       7.481202060995e+02 
       2.515773805845e-01       6.914025263162e+02 
       2.600200232173e-01       6.339384004552e+02 
       2.687593823042e-01       5.850278082856e+02 
       2.778104991938e-01       5.480294332220e+02 
       2.871902474309e-01       5.188047840042e+02 
       2.969176662520e-01       4.898060450456e+02 
       3.070143643311e-01       4.566002638589e+02 
       3.175050136735e-01       4.212064824868e+02 
       3.284179604783e-01       3.889653182694e+02 
       3.397859895316e-01       3.625337727112e+02 
       3.516472926002e-01       3.395855992339e+02 
       3.640467115017e-01       3.162814946638e+02 
       3.770373564172e-01       2.920056627141e+02 
       3.906827451080e-01       2.692773996705e+02 
       4.050596782365e-01       2.494375462342e+02 
       4.202621758133e-01       2.309021909707e+02 
       4.364069778855e-01       2.123053739151e+02 
       4.536414100436e-01       1.945654752132e+02 
       4.721549278939e-01       1.783310451884e+02 
       4.921965749843e-01       1.626655970180e+02 
       5.141023091287e-01       1.474376808233e+02 
       5.383395262727e-01       1.330377324130e+02 
       5.655830996142e-01       1.189924723703e+02 
       5.968526462897e-01       1.053251988904e+02 
       6.337770286287e-01       9.184134647084e+01 
       6.791437777009e-01       7.836980813717e+01 
       7.381342487785e-01       6.464695404766e+01 
       8.212473487205e-01       5.041363221503e+01 
       9.503436784358e-01       3.574473000657e+01 
       1.158766866010e+00       2.226948973747e+01 
       1.454000317394e+00       1.285305536997e+01 
       1.830352338871e+00       7.301956638248e+00 
       2.304276399089e+00       4.117538887196e+00 
       2.900912114061e+00       2.306516024898e+00 
       3.652031977773e+00       1.284247955386e+00 
       4.597635861503e+00       7.111113643203e-01 
       5.788080620222e+00       3.917596687120e-01 
       7.286761778311e+00       2.148163523835e-01 
       9.173489572407e+00       1.172816218068e-01 
       1.154873913753e+01       6.377261177515e-02 
