# Matter power spectrum P(k) at redshift z=0.5
# for k=1.90361e-07 to 12.0239 h/Mpc,
# number of wavenumbers equal to 140
#    1:k (h/Mpc)              2:P (Mpc/h)^3        
       1.903605867038e-07       9.721826691608e-01 
       2.396497800055e-07       1.212684633341e+00 
       3.017011979798e-07       1.512682817671e+00 
       3.798193049055e-07       1.886895605356e+00 
       4.781641748355e-07       2.353682463939e+00 
       6.019730307101e-07       2.935944688908e+00 
       7.578391455756e-07       3.662248975255e+00 
       9.540629584176e-07       4.568228940617e+00 
       1.201094102803e-06       5.698333358688e+00 
       1.512087887975e-06       7.108006870651e+00 
       1.903605867038e-06       8.866410155568e+00 
       2.396497800055e-06       1.105981300058e+01 
       3.017011979798e-06       1.379582671122e+01 
       3.798193049055e-06       1.720868345203e+01 
       4.781641748355e-06       2.146582141160e+01 
       6.019730307101e-06       2.677609864524e+01 
       7.578391455756e-06       3.340003812077e+01 
       9.540629584176e-06       4.166260571401e+01 
       1.201094102803e-05       5.196914628684e+01 
       1.512087887975e-05       6.482525618281e+01 
       1.903605867038e-05       8.086156021858e+01 
       2.396497800055e-05       1.008645950484e+02 
       3.017011979798e-05       1.258152871067e+02 
       3.798193049055e-05       1.569368595691e+02 
       4.781641748355e-05       1.957544135621e+02 
       6.019730307101e-05       2.441688999207e+02 
       7.578391455756e-05       3.045487040540e+02 
       9.540629584176e-05       3.798425426572e+02 
       1.201094102803e-04       4.737176663412e+02 
       1.512087887975e-04       5.907271768055e+02 
       1.903605867038e-04       7.365090402733e+02 
       2.396497800055e-04       9.180161744542e+02 
       3.017011979798e-04       1.143770491105e+03 
       3.798193049055e-04       1.424122791094e+03 
       4.781641748355e-04       1.771485447565e+03 
       6.019730307101e-04       2.200490210235e+03 
       7.578391455756e-04       2.728012462101e+03 
       9.540629584176e-04       3.372967340000e+03 
       1.201094102803e-03       4.155636405235e+03 
       1.512087887975e-03       5.096092865429e+03 
       1.903605867038e-03       6.211472646164e+03 
       2.396497800055e-03       7.511884654848e+03 
       3.017011979798e-03       8.994709653168e+03 
       3.798193049055e-03       1.063759243053e+04 
       4.781641748355e-03       1.238982845846e+04 
       6.019730307101e-03       1.413532280283e+04 
       7.578391455756e-03       1.578672663638e+04 
       9.540629584176e-03       1.714136749721e+04 
       1.201094102803e-02       1.796898243137e+04 
       1.512087887974e-02       1.801326311790e+04 
       1.903605858241e-02       1.705679307815e+04 
       2.396490105931e-02       1.506030995064e+04 
       3.015819598642e-02       1.235776945127e+04 
       3.754302639706e-02       9.798270396900e+03 
       4.396281812039e-02       8.354765352543e+03 
       4.858815821618e-02       7.666644702248e+03 
       5.237106482487e-02       7.240074629285e+03 
       5.573396963519e-02       6.914612416681e+03 
       5.886254770273e-02       6.627008526847e+03 
       6.185397452757e-02       6.347409946237e+03 
       6.476605056332e-02       6.061273545653e+03 
       6.763651436070e-02       5.762809870700e+03 
       7.049183599820e-02       5.451993766051e+03 
       7.335168649593e-02       5.132796368241e+03 
       7.623140777497e-02       4.811834167746e+03 
       7.914346986107e-02       4.497158273047e+03 
       8.209837672854e-02       4.197123016042e+03 
       8.510525387830e-02       3.919365588785e+03 
       8.817224306012e-02       3.669957801210e+03 
       9.130677523068e-02       3.452780493022e+03 
       9.451576386365e-02       3.269141216401e+03 
       9.780574452471e-02       3.117623989697e+03 
       1.011829771916e-01       2.994159352034e+03 
       1.046535221172e-01       2.892317760061e+03 
       1.082232965105e-01       2.803875149502e+03 
       1.118981170688e-01       2.719713168154e+03 
       1.156837319468e-01       2.631071238863e+03 
       1.195858447923e-01       2.531032497621e+03 
       1.236101328445e-01       2.415943908764e+03 
       1.277622606716e-01       2.286332771902e+03 
       1.320478908430e-01       2.146907697807e+03 
       1.364726926444e-01       2.005475192650e+03 
       1.410423498283e-01       1.870991220916e+03 
       1.457625683126e-01       1.751302078310e+03 
       1.506390846943e-01       1.651221951328e+03 
       1.556776764122e-01       1.571418496806e+03 
       1.608841743787e-01       1.508308181051e+03 
       1.662644788820e-01       1.454997606340e+03 
       1.718245795578e-01       1.403218167807e+03 
       1.775705802193e-01       1.345948966392e+03 
       1.835087293426e-01       1.279914251316e+03 
       1.896454570090e-01       1.206768495016e+03 
       1.959874191428e-01       1.132146132034e+03 
       2.025415499262e-01       1.062894590921e+03 
       2.093151233684e-01       1.003895543957e+03 
       2.163158251325e-01       9.560293545276e+02 
       2.235518359258e-01       9.161165564962e+02 
       2.310319280299e-01       8.787873821123e+02 
       2.387655769321e-01       8.394511499011e+02 
       2.467630905291e-01       7.967920744103e+02 
       2.550357590592e-01       7.531323055543e+02 
       2.635960298274e-01       7.123470977887e+02 
       2.724577119803e-01       6.769336972497e+02 
       2.816362181822e-01       6.464238685823e+02 
       2.911488521470e-01       6.181580347634e+02 
       3.010151538218e-01       5.896607427279e+02 
       3.112573178521e-01       5.605934004080e+02 
       3.219007062250e-01       5.325468291462e+02 
       3.329744832982e-01       5.070407322209e+02 
       3.445124117255e-01       4.839451497904e+02 
       3.565538625420e-01       4.619186672230e+02 
       3.691451141456e-01       4.401123601580e+02 
       3.823410467654e-01       4.189537027528e+02 
       3.962073871992e-01       3.991409882944e+02 
       4.108237331457e-01       3.805078124213e+02 
       4.262877045847e-01       3.624237009051e+02 
       4.427207619529e-01       3.448061520241e+02 
       4.602765534155e-01       3.279255143905e+02 
       4.791532130774e-01       3.116351482538e+02 
       4.996120401583e-01       2.956563370494e+02 
       5.220068853736e-01       2.800020098905e+02 
       5.468323157074e-01       2.645527187999e+02 
       5.748064468058e-01       2.490939965356e+02 
       6.070217071987e-01       2.334598698991e+02 
       6.452381522823e-01       2.173344570778e+02 
       6.924993105491e-01       2.002910851704e+02 
       7.545304566055e-01       1.816409945805e+02 
       8.430475307680e-01       1.603174879437e+02 
       9.821759002528e-01       1.351320933019e+02 
       1.205003197772e+00       1.072545309113e+02 
       1.513770383523e+00       8.209277180366e+01 
       1.905655095674e+00       6.162271359252e+01 
       2.399077333780e+00       4.521237494533e+01 
       3.020259420175e+00       3.228186841212e+01 
       3.802281334269e+00       2.236723821168e+01 
       4.786788594501e+00       1.503056406750e+01 
       6.026209802504e+00       9.815208241527e+00 
       7.586548657176e+00       6.250784234508e+00 
       9.550898892331e+00       3.898063752367e+00 
       1.202386932103e+01       2.389855484522e+00 
