# Matter power spectrum P(k) at redshift z=1
# for k=2.05415e-07 to 10.3057 h/Mpc,
# number of wavenumbers equal to 139
#    1:k (h/Mpc)              2:P (Mpc/h)^3        
       2.054150991474e-07       4.876428432686e-01 
       2.586022882829e-07       6.082776430861e-01 
       3.255609922675e-07       7.587555032259e-01 
       4.098570062545e-07       9.464591046113e-01 
       5.159794003757e-07       1.180597481109e+00 
       6.495795790952e-07       1.472657829225e+00 
       8.177722391056e-07       1.836969087123e+00 
       1.029514252870e-06       2.291404933261e+00 
       1.296081654742e-06       2.858260694327e+00 
       1.631670130915e-06       3.565347183335e+00 
       2.054150991474e-06       4.447355128587e+00 
       2.586022882829e-06       5.547557132167e+00 
       3.255609922675e-06       6.919930645107e+00 
       4.098570062545e-06       8.631806089792e+00 
       5.159794003757e-06       1.076717001140e+01 
       6.495795790952e-06       1.343078522164e+01 
       8.177722391056e-06       1.675332989619e+01 
       1.029514252870e-05       2.089780741172e+01 
       1.296081654742e-05       2.606754069341e+01 
       1.631670130915e-05       3.251614192439e+01 
       2.054150991474e-05       4.055994401399e+01 
       2.586022882829e-05       5.059349836884e+01 
       3.255609922675e-05       6.310888868561e+01 
       4.098570062545e-05       7.871978737476e+01 
       5.159794003757e-05       9.819139350898e+01 
       6.495795790952e-05       1.224776396362e+02 
       8.177722391056e-05       1.527673326510e+02 
       1.029514252870e-04       1.905411783854e+02 
       1.296081654742e-04       2.376418750323e+02 
       1.631670130915e-04       2.963595285786e+02 
       2.054150991474e-04       3.695343147778e+02 
       2.586022882829e-04       4.606771789635e+02 
       3.255609922675e-04       5.741067910132e+02 
       4.098570062545e-04       7.150961888405e+02 
       5.159794003757e-04       8.900151849250e+02 
       6.495795790952e-04       1.106445944291e+03 
       8.177722391056e-04       1.373242396242e+03 
       1.029514252870e-03       1.700496085940e+03 
       1.296081654742e-03       2.099327437989e+03 
       1.631670130915e-03       2.581302260084e+03 
       2.054150991474e-03       3.157239567419e+03 
       2.586022882829e-03       3.835358400576e+03 
       3.255609922675e-03       4.618572616934e+03 
       4.098570062545e-03       5.500885580139e+03 
       5.159794003757e-03       6.462795106068e+03 
       6.495795790952e-03       7.466137265308e+03 
       8.177722391056e-03       8.449004885025e+03 
       1.029514252870e-02       9.321629634408e+03 
       1.296081654742e-02       9.965773320381e+03 
       1.631670130908e-02       1.024336309659e+04 
       2.054150956550e-02       1.002630815876e+04 
       2.586000994268e-02       9.262606925683e+03 
       3.253023783491e-02       8.074468570494e+03 
       4.024087754727e-02       6.866261898058e+03 
       4.648935068208e-02       6.136195955730e+03 
       5.107283306434e-02       5.720340893014e+03 
       5.489319142512e-02       5.423901224963e+03 
       5.832360007805e-02       5.178962650993e+03 
       6.153362638411e-02       4.956943379922e+03 
       6.461434903823e-02       4.743950745824e+03 
       6.762095751278e-02       4.533127715539e+03 
       7.058999275443e-02       4.321674142837e+03 
       7.354737048754e-02       4.109416320201e+03 
       7.651252688694e-02       3.897948165821e+03 
       7.950073897330e-02       3.689992356644e+03 
       8.252450746537e-02       3.488849634650e+03 
       8.559442345306e-02       3.297897839021e+03 
       8.871973434631e-02       3.120141120837e+03 
       9.190872617838e-02       2.957826560097e+03 
       9.516898918753e-02       2.812148903753e+03 
       9.850760660754e-02       2.683061857006e+03 
       1.019312913865e-01       2.569212116496e+03 
       1.054464866421e-01       2.468013295629e+03 
       1.090594402624e-01       2.375877082312e+03 
       1.127762606996e-01       2.288615224432e+03 
       1.166029588558e-01       2.202002558177e+03 
       1.205454795689e-01       2.112447941855e+03 
       1.246097252874e-01       2.017660044557e+03 
       1.288015739094e-01       1.917144048481e+03 
       1.331268923612e-01       1.812358967037e+03 
       1.375915472129e-01       1.706426758614e+03 
       1.422014134592e-01       1.603410189152e+03 
       1.469623824705e-01       1.507318023079e+03 
       1.518803700538e-01       1.421093912026e+03 
       1.569613255117e-01       1.345857172578e+03 
       1.622112425622e-01       1.280601808599e+03 
       1.676361729631e-01       1.222463459115e+03 
       1.732422436723e-01       1.167548472906e+03 
       1.790356783679e-01       1.112161093781e+03 
       1.850228241469e-01       1.054060429835e+03 
       1.912101842286e-01       9.932370929862e+02 
       1.976044574979e-01       9.317943293089e+02 
       2.042125857619e-01       8.729098913003e+02 
       2.110418096505e-01       8.193407575480e+02 
       2.180997341891e-01       7.721866941696e+02 
       2.253944052214e-01       7.304970755563e+02 
       2.329343980748e-01       6.919014777527e+02 
       2.407289201671e-01       6.539531303536e+02 
       2.487879296651e-01       6.154580755471e+02 
       2.571222728694e-01       5.769768407113e+02 
       2.657438437408e-01       5.401669016468e+02 
       2.746657699735e-01       5.064584206736e+02 
       2.839026313227e-01       4.760476824251e+02 
       2.934707176205e-01       4.479177433935e+02 
       3.033883362215e-01       4.207850683025e+02 
       3.136761817099e-01       3.941318477167e+02 
       3.243577849061e-01       3.684218312338e+02 
       3.354600639808e-01       3.443829847562e+02 
       3.470140085282e-01       3.221699994078e+02 
       3.590555388077e-01       3.012793582171e+02 
       3.716265986742e-01       2.811944539989e+02 
       3.847765645421e-01       2.619046043264e+02 
       3.985640881747e-01       2.436850809726e+02 
       4.130595449387e-01       2.265637703895e+02 
       4.283483427833e-01       2.102781785358e+02 
       4.445354803296e-01       1.946760545127e+02 
       4.617519602599e-01       1.798175920899e+02 
       4.801640316209e-01       1.656833858829e+02 
       4.999868761161e-01       1.521310685193e+02 
       5.215055176027e-01       1.391030998541e+02 
       5.451079415872e-01       1.265596018155e+02 
       5.713398121659e-01       1.143952480810e+02 
       6.009994583503e-01       1.025269846944e+02 
       6.353126801820e-01       9.084129207828e+01 
       6.762772390170e-01       7.919554641729e+01 
       7.273964688911e-01       6.740012667981e+01 
       7.953653525267e-01       5.520669883309e+01 
       8.940383331726e-01       4.238475606295e+01 
       1.051250800576e+00       2.923999821755e+01 
       1.298936946479e+00       1.785254026204e+01 
       1.633369446224e+00       1.036063711797e+01 
       2.056259568766e+00       5.940912550839e+00 
       2.588677329248e+00       3.377911693812e+00 
       3.258951672686e+00       1.906061096326e+00 
       4.102777076554e+00       1.068137371433e+00 
       5.165090320600e+00       5.948255983784e-01 
       6.502463458816e+00       3.293540904451e-01 
       8.186116487566e+00       1.814084477528e-01 
       1.030571007010e+01       9.943929718299e-02 
