# Matter power spectrum P(k) at redshift z=2
# for k=1.67356e-07 to 10.5739 h/Mpc,
# number of wavenumbers equal to 140
#    1:k (h/Mpc)              2:P (Mpc/h)^3        
       1.673564718136e-07       5.070551302377e-01 
       2.106893151943e-07       6.324922096070e-01 
       2.652421328916e-07       7.889603537827e-01 
       3.339200613757e-07       9.841361362158e-01 
       4.203804507738e-07       1.227595187538e+00 
       5.292276321006e-07       1.531281990123e+00 
       6.662581146751e-07       1.910095892283e+00 
       8.387692713786e-07       2.382622091388e+00 
       1.055947950371e-06       2.972043447577e+00 
       1.329359708253e-06       3.707277862450e+00 
       1.673564718136e-06       4.624397015926e+00 
       2.106893151943e-06       5.768396062642e+00 
       2.652421328916e-06       7.195401087699e+00 
       3.339200613757e-06       8.975422591667e+00 
       4.203804507738e-06       1.119579001543e+01 
       5.292276321006e-06       1.396543567295e+01 
       6.662581146751e-06       1.742023797424e+01 
       8.387692713786e-06       2.172968553670e+01 
       1.055947950371e-05       2.710518799194e+01 
       1.329359708253e-05       3.381043908502e+01 
       1.673564718136e-05       4.217433609462e+01 
       2.106893151943e-05       5.260708086597e+01 
       2.652421328916e-05       6.562023542050e+01 
       3.339200613757e-05       8.185168261495e+01 
       4.203804507738e-05       1.020966502707e+02 
       5.292276321006e-05       1.273461908307e+02 
       6.662581146751e-05       1.588347476066e+02 
       8.387692713786e-05       1.980986386542e+02 
       1.055947950371e-04       2.470473447519e+02 
       1.329359708253e-04       3.080491928671e+02 
       1.673564718136e-04       3.840319832133e+02 
       2.106893151943e-04       4.785966107799e+02 
       2.652421328916e-04       5.961366609442e+02 
       3.339200613757e-04       7.419478899449e+02 
       4.203804507738e-04       9.222976517014e+02 
       5.292276321006e-04       1.144408357772e+03 
       6.662581146751e-04       1.416301309853e+03 
       8.387692713786e-04       1.746460962807e+03 
       1.055947950371e-03       2.143285248146e+03 
       1.329359708253e-03       2.614147348085e+03 
       1.673564718136e-03       3.163639329659e+03 
       2.106893151943e-03       3.790982473735e+03 
       2.652421328916e-03       4.487207029050e+03 
       3.339200613757e-03       5.232017034463e+03 
       4.203804507738e-03       5.990420332298e+03 
       5.292276321006e-03       6.710429535650e+03 
       6.662581146751e-03       7.322012703558e+03 
       8.387692713786e-03       7.737965797589e+03 
       1.055947950371e-02       7.858125726272e+03 
       1.329359708253e-02       7.581729824434e+03 
       1.673564717142e-02       6.838838370315e+03 
       2.106891697007e-02       5.654194749704e+03 
       2.652077990797e-02       4.230210169540e+03 
       3.321047379287e-02       2.971129924929e+03 
       3.969972418657e-02       2.295106013872e+03 
       4.435227312308e-02       2.045313600568e+03 
       4.803785918763e-02       1.928275154402e+03 
       5.125926997763e-02       1.854230921635e+03 
       5.422755210955e-02       1.791516736099e+03 
       5.704869110986e-02       1.725953009763e+03 
       5.978390067196e-02       1.650870996593e+03 
       6.247228363203e-02       1.563887639624e+03 
       6.514080053815e-02       1.465531292237e+03 
       6.780920721842e-02       1.358411255985e+03 
       7.049272985448e-02       1.246520575813e+03 
       7.320361868733e-02       1.134557283316e+03 
       7.595210174377e-02       1.027270780670e+03 
       7.874699712033e-02       9.288894614227e+02 
       8.159612081159e-02       8.426901230323e+02 
       8.450656675157e-02       7.707457687576e+02 
       8.748490399783e-02       7.138435942306e+02 
       9.053731844439e-02       6.715251582791e+02 
       9.366971633679e-02       6.421831066168e+02 
       9.688780082232e-02       6.231731884090e+02 
       1.001971290484e-01       6.109575458086e+02 
       1.036031549730e-01       6.013562035196e+02 
       1.071112615346e-01       5.900030122114e+02 
       1.107267848379e-01       5.730377301728e+02 
       1.144550323516e-01       5.479255978340e+02 
       1.183012966782e-01       5.141435230999e+02 
       1.222708661637e-01       4.734171834455e+02 
       1.263690334222e-01       4.293141570353e+02 
       1.306011027257e-01       3.862690127540e+02 
       1.349723971277e-01       3.483858729545e+02 
       1.394882661387e-01       3.184445261753e+02 
       1.441540947419e-01       2.973694328305e+02 
       1.489753145148e-01       2.841577456675e+02 
       1.539574176113e-01       2.761517946048e+02 
       1.591059743493e-01       2.696495642313e+02 
       1.644266551445e-01       2.609348529098e+02 
       1.699252575297e-01       2.475838478849e+02 
       1.756077390085e-01       2.294674011272e+02 
       1.814802565130e-01       2.087517701251e+02 
       1.875492132784e-01       1.887554249781e+02 
       1.938213140183e-01       1.723233634935e+02 
       2.003036293960e-01       1.606310801052e+02 
       2.070036709553e-01       1.528770094322e+02 
       2.139294779092e-01       1.468255669440e+02 
       2.210897175135e-01       1.399959872357e+02 
       2.284938011933e-01       1.310444523738e+02 
       2.361520191891e-01       1.204782581955e+02 
       2.440756972679e-01       1.100791646701e+02 
       2.522773800934e-01       1.014845985438e+02 
       2.607710472178e-01       9.507536343782e+01 
       2.695723694932e-01       8.990836650359e+01 
       2.786990161457e-01       8.461898050842e+01 
       2.881710260636e-01       7.857871633484e+01 
       2.980112613767e-01       7.229776422350e+01 
       3.082459676569e-01       6.670066066202e+01 
       3.189054738591e-01       6.211386803934e+01 
       3.300250776444e-01       5.804790280649e+01 
       3.416461798777e-01       5.389768401544e+01 
       3.538177588793e-01       4.965531495866e+01 
       3.665983153177e-01       4.574191928629e+01 
       3.800584806166e-01       4.230335473118e+01 
       3.942845793197e-01       3.906051757307e+01 
       4.093835935450e-01       3.584274565821e+01 
       4.254902400052e-01       3.280543509435e+01 
       4.427773210198e-01       3.001240530142e+01 
       4.614713150739e-01       2.732204007969e+01 
       4.818766672452e-01       2.473031023531e+01 
       5.044151526737e-01       2.227853653060e+01 
       5.296926755806e-01       1.989970278983e+01 
       5.586189524662e-01       1.759438424529e+01 
       5.926361093965e-01       1.533102352412e+01 
       6.341888313391e-01       1.308203398804e+01 
       6.877712007565e-01       1.080671901392e+01 
       7.623993560304e-01       8.463450860846e+00 
       8.769516100338e-01       6.052721138436e+00 
       1.062622537938e+00       3.801100721347e+00 
       1.331343230203e+00       2.185518194670e+00 
       1.675857874216e+00       1.233084821856e+00 
       2.109778712951e+00       6.907791030868e-01 
       2.656054033569e+00       3.845832941587e-01 
       3.343773917958e+00       2.129018418711e-01 
       4.209561956612e+00       1.172493598572e-01 
       5.299524519700e+00       6.426351021057e-02 
       6.671706088277e+00       3.506720334272e-02 
       8.399180334554e+00       1.905719386316e-02 
       1.057394156141e+01       1.031705917586e-02 
