# Matter power spectrum P(k) at redshift z=1
# for k=2.34563e-07 to 11.7688 h/Mpc,
# number of wavenumbers equal to 139
#    1:k (h/Mpc)              2:P (Mpc/h)^3        
       2.345634022727e-07       3.008371623613e-01 
       2.952978277981e-07       3.752593166319e-01 
       3.717579394626e-07       4.680922847734e-01 
       4.680155170257e-07       5.838905985086e-01 
       5.891966274976e-07       7.283355054399e-01 
       7.417546069002e-07       9.085136998243e-01 
       9.338137239420e-07       1.133265006669e+00 
       1.175601826953e-06       1.413616076823e+00 
       1.479995014102e-06       1.763321370217e+00 
       1.863203332582e-06       2.199537969310e+00 
       2.345634022727e-06       2.743667326368e+00 
       2.952978277981e-06       3.422405242095e+00 
       3.717579394626e-06       4.269051582934e+00 
       4.680155170257e-06       5.325143982768e+00 
       5.891966274976e-06       6.642495662022e+00 
       7.417546069002e-06       8.285737302725e+00 
       9.338137239420e-06       1.033548760810e+01 
       1.175601826953e-05       1.289230794478e+01 
       1.479995014102e-05       1.608163477935e+01 
       1.863203332582e-05       2.005993128737e+01 
       2.345634022727e-05       2.502235875572e+01 
       2.952978277981e-05       3.121234173525e+01 
       3.717579394626e-05       3.893349156065e+01 
       4.680155170257e-05       4.856446389951e+01 
       5.891966274976e-05       6.057746097049e+01 
       7.417546069002e-05       7.556124999873e+01 
       9.338137239420e-05       9.424975625650e+01 
       1.175601826953e-04       1.175574939322e+02 
       1.479995014102e-04       1.466233008928e+02 
       1.863203332582e-04       1.828639947537e+02 
       2.345634022727e-04       2.280395698803e+02 
       2.952978277981e-04       2.843312260688e+02 
       3.717579394626e-04       3.544325638476e+02 
       4.680155170257e-04       4.416523058796e+02 
       5.891966274976e-04       5.500236095428e+02 
       7.417546069002e-04       6.844107020179e+02 
       9.338137239420e-04       8.505992849166e+02 
       1.175601826953e-03       1.055351624166e+03 
       1.479995014102e-03       1.306386008567e+03 
       1.863203332582e-03       1.612181008007e+03 
       2.345634022727e-03       1.981464171570e+03 
       2.952978277981e-03       2.422300427986e+03 
       3.717579394626e-03       2.940626133448e+03 
       4.680155170257e-03       3.538087032578e+03 
       5.891966274976e-03       4.208929013024e+03 
       7.417546069002e-03       4.935911508540e+03 
       9.338137239420e-03       5.685405601977e+03 
       1.175601826953e-02       6.401921051979e+03 
       1.479995014102e-02       7.003784878788e+03 
       1.863203332564e-02       7.384411550403e+03 
       2.345633949495e-02       7.429421908919e+03 
       2.952939055197e-02       7.064956556280e+03 
       3.713502249666e-02       6.342234424114e+03 
       4.576020871776e-02       5.550616949259e+03 
       5.254182372314e-02       5.065375373902e+03 
       5.757157039933e-02       4.781713188700e+03 
       6.179951844891e-02       4.578174822008e+03 
       6.561307347364e-02       4.409909176711e+03 
       6.919112825647e-02       4.256737619315e+03 
       7.263093635235e-02       4.108114212696e+03 
       7.599194221132e-02       3.958315695142e+03 
       7.931376363755e-02       3.804566005408e+03 
       8.262464634080e-02       3.646156702249e+03 
       8.594586633050e-02       3.483928963869e+03 
       8.929420882279e-02       3.319877025742e+03 
       9.268345262178e-02       3.156777195199e+03 
       9.612530402839e-02       2.997809837944e+03 
       9.963000863624e-02       2.846176317212e+03 
       1.032067656917e-01       2.704728513761e+03 
       1.068640165703e-01       2.575635964040e+03 
       1.106096502043e-01       2.460115761762e+03 
       1.144511520593e-01       2.358247230499e+03 
       1.183957137128e-01       2.268892525538e+03 
       1.224503142911e-01       2.189744827674e+03 
       1.266217814019e-01       2.117528728021e+03 
       1.309168368886e-01       2.048372702995e+03 
       1.353421312244e-01       1.978350510738e+03 
       1.399042693745e-01       1.904142109285e+03 
       1.446098302941e-01       1.823700286697e+03 
       1.494653817891e-01       1.736753532547e+03 
       1.544774921782e-01       1.644966003570e+03 
       1.596527399988e-01       1.551638548427e+03 
       1.649977228797e-01       1.460966582728e+03 
       1.705190666231e-01       1.377018594154e+03 
       1.762234354881e-01       1.302699965148e+03 
       1.821175446398e-01       1.238977177970e+03 
       1.882081757069e-01       1.184577305864e+03 
       1.945021963775e-01       1.136287704171e+03 
       2.010065849545e-01       1.089870970344e+03 
       2.077284607895e-01       1.041432274896e+03 
       2.146751215166e-01       9.888224680379e+02 
       2.218540880280e-01       9.324723571040e+02 
       2.292731581708e-01       8.751656544694e+02 
       2.369404702156e-01       8.207430103313e+02 
       2.448645772585e-01       7.723175516075e+02 
       2.530545338953e-01       7.308619599797e+02 
       2.615199967495e-01       6.948456481486e+02 
       2.702713407916e-01       6.611266226232e+02 
       2.793197938600e-01       6.267162784382e+02 
       2.886775924392e-01       5.904719785313e+02 
       2.983581626043e-01       5.536154768943e+02 
       3.083763311718e-01       5.186543309857e+02 
       3.187485735935e-01       4.874727245503e+02 
       3.294933071108e-01       4.600170967124e+02 
       3.406312403326e-01       4.345411246601e+02 
       3.521857939550e-01       4.091781786379e+02 
       3.641836121744e-01       3.834958750592e+02 
       3.766551909912e-01       3.586055548725e+02 
       3.896356588716e-01       3.357684922885e+02 
       4.031657583448e-01       3.150245011807e+02 
       4.172930959672e-01       2.953198813872e+02 
       4.320737556623e-01       2.758711303355e+02 
       4.475744115552e-01       2.569956294102e+02 
       4.638751389724e-01       2.393625447817e+02 
       4.810732196240e-01       2.228866476693e+02 
       4.992883923041e-01       2.069712246155e+02 
       5.186702552016e-01       1.915226746396e+02 
       5.394089568687e-01       1.768536367519e+02 
       5.617510676626e-01       1.628506227308e+02 
       5.860238981249e-01       1.492350825472e+02 
       6.126741481304e-01       1.360795520523e+02 
       6.423320122805e-01       1.233058926687e+02 
       6.759229836922e-01       1.107509617652e+02 
       7.148747422364e-01       9.834936474588e+01 
       7.615274732999e-01       8.590908038282e+01 
       8.200137212730e-01       7.322625475537e+01 
       8.982917110185e-01       6.001396295962e+01 
       1.012904540789e+00       4.602055127693e+01 
       1.196529261099e+00       3.164815501018e+01 
       1.482870387046e+00       1.935466591839e+01 
       1.865243738123e+00       1.131694245851e+01 
       2.348180321426e+00       6.537617395463e+00 
       2.956183818833e+00       3.742236442270e+00 
       3.721614931443e+00       2.124522714289e+00 
       4.685235610106e+00       1.197153467114e+00 
       5.898362169805e+00       6.700321332718e-01 
       7.425598023533e+00       3.727020554383e-01 
       9.348274049594e+00       2.061483766997e-01 
       1.176877975745e+01       1.134367100315e-01 
