# Matter power spectrum P(k) at redshift z=2.5
# for k=7.71814e-06 to 12.2497 h/Mpc,
# number of wavenumbers equal to 124
#    1:k (h/Mpc)              2:P (Mpc/h)^3        
       7.718143105632e-06       2.279059444704e+01 
       9.716566487544e-06       2.842853407672e+01 
       1.223243246656e-05       3.546113119867e+01 
       1.539972008020e-05       4.423332435296e+01 
       1.938709894349e-05       5.517531887940e+01 
       2.440691152092e-05       6.882359195954e+01 
       3.072648113710e-05       8.584705669104e+01 
       3.868234791851e-05       1.070795481089e+02 
       4.869819078248e-05       1.335600609818e+02 
       6.130738988446e-05       1.665824414238e+02 
       7.718143105632e-05       2.077562945425e+02 
       9.716566487544e-05       2.590809394445e+02 
       1.223243246656e-04       3.230336537264e+02 
       1.539972008020e-04       4.026720469765e+02 
       1.938709894349e-04       5.017470739859e+02 
       2.440691152092e-04       6.248166219335e+02 
       3.072648113710e-04       7.773378998678e+02 
       3.868234791851e-04       9.656989060949e+02 
       4.869819078248e-04       1.197128454438e+03 
       6.130738988446e-04       1.479414851438e+03 
       7.718143105632e-04       1.820390106732e+03 
       9.716566487544e-04       2.227183067315e+03 
       1.223243246656e-03       2.705134309470e+03 
       1.539972008020e-03       3.255894907663e+03 
       1.938709894349e-03       3.874578425506e+03 
       2.440691152092e-03       4.547058894982e+03 
       3.072648113710e-03       5.247447110427e+03 
       3.868234791851e-03       5.935959269946e+03 
       4.869819078248e-03       6.558740010664e+03 
       6.130738988446e-03       7.049836188122e+03 
       7.718143105632e-03       7.334317351881e+03 
       9.716566487544e-03       7.336730401280e+03 
       1.223243246656e-02       6.991380373379e+03 
       1.539972007545e-02       6.266464023286e+03 
       1.938709075966e-02       5.206179462856e+03 
       2.440470649993e-02       3.980655718165e+03 
       3.059619250750e-02       2.892382540598e+03 
       3.679490117507e-02       2.262563042225e+03 
       4.126492430021e-02       2.002042688798e+03 
       4.476847435662e-02       1.859876893632e+03 
       4.781324688753e-02       1.756327550846e+03 
       5.060980248222e-02       1.664997930539e+03 
       5.326248356758e-02       1.575215315031e+03 
       5.583098582342e-02       1.482739526141e+03 
       5.835317692333e-02       1.386666783457e+03 
       6.085502428869e-02       1.288044113369e+03 
       6.335547199539e-02       1.189058549985e+03 
       6.586906634151e-02       1.092458275608e+03 
       6.840747324952e-02       1.001015890542e+03 
       7.098040600170e-02       9.172329324284e+02 
       7.359621890173e-02       8.430016890201e+02 
       7.626230163862e-02       7.794499539132e+02 
       7.898534948172e-02       7.268649141746e+02 
       8.177155318494e-02       6.846920842292e+02 
       8.462673526676e-02       6.516224293534e+02 
       8.755644944261e-02       6.256483516730e+02 
       9.056605409387e-02       6.042776497370e+02 
       9.366076703766e-02       5.847480101889e+02 
       9.684570657902e-02       5.643962818769e+02 
       1.001259223571e-01       5.410426209761e+02 
       1.035064185349e-01       5.134165563401e+02 
       1.069921712450e-01       4.814637701159e+02 
       1.105881417803e-01       4.463596280648e+02 
       1.142992867350e-01       4.102197964827e+02 
       1.181305661171e-01       3.755667447591e+02 
       1.220869503278e-01       3.446661352237e+02 
       1.261734268302e-01       3.189789747022e+02 
       1.303950072745e-01       2.988535144853e+02 
       1.347567358210e-01       2.835131431423e+02 
       1.392636993811e-01       2.712848898869e+02 
       1.439210404822e-01       2.600565295035e+02 
       1.487339734573e-01       2.478594936947e+02 
       1.537078046522e-01       2.336139486183e+02 
       1.588479573442e-01       2.173031985377e+02 
       1.641600020726e-01       2.003341359360e+02 
       1.696496931000e-01       1.843019102052e+02 
       1.753230117628e-01       1.705215147061e+02 
       1.811862175316e-01       1.594034662300e+02 
       1.872459077060e-01       1.502775208274e+02 
       1.935090868178e-01       1.419998461869e+02 
       1.999832470344e-01       1.337128536136e+02 
       2.066764611512e-01       1.249920721755e+02 
       2.135974901696e-01       1.159279414480e+02 
       2.207559080000e-01       1.072408390925e+02 
       2.281622465497e-01       9.961262475365e+01 
       2.358281654110e-01       9.304156361665e+01 
       2.437666516220e-01       8.715608196726e+01 
       2.519922566535e-01       8.146737896640e+01 
       2.605213800126e-01       7.573485117304e+01 
       2.693726118822e-01       7.022185157821e+01 
       2.785671513472e-01       6.513589689240e+01 
       2.881293224691e-01       6.057101905933e+01 
       2.980872184847e-01       5.635763891198e+01 
       3.084735158044e-01       5.227355334363e+01 
       3.193265159937e-01       4.835975207101e+01 
       3.306914982422e-01       4.472451559693e+01 
       3.426225013667e-01       4.135879065725e+01 
       3.551847104800e-01       3.816656047804e+01 
       3.684577115821e-01       3.513785514580e+01 
       3.825400194237e-01       3.228838882068e+01 
       3.975555198261e-01       2.959454293352e+01 
       4.136628719114e-01       2.704456254496e+01 
       4.310696343502e-01       2.461471137994e+01 
       4.500542109393e-01       2.230618119947e+01 
       4.710012946098e-01       2.009275718695e+01 
       4.944617776275e-01       1.796097337057e+01 
       5.212595921728e-01       1.589387917538e+01 
       5.526946631491e-01       1.386957787837e+01 
       5.909577264605e-01       1.185843931808e+01 
       6.400482665782e-01       9.828261133329e+00 
       7.079376559271e-01       7.741168068875e+00 
       8.113423868033e-01       5.590752921030e+00 
       9.790779904232e-01       3.553592669104e+00 
       1.225183417958e+00       2.055991617244e+00 
       1.542148418244e+00       1.165038355846e+00 
       1.941447820562e+00       6.558663899267e-01 
       2.444137994484e+00       3.670960658555e-01 
       3.076987431187e+00       2.043577720516e-01 
       3.873697668892e+00       1.131699717977e-01 
       4.876696432976e+00       6.236033366735e-02 
       6.139397065080e+00       3.419901010810e-02 
       7.729042978323e+00       1.867008509115e-02 
       9.730288614260e+00       1.014937323399e-02 
       1.224970760058e+01       5.495303328324e-03 
