# Matter power spectrum P(k) at redshift z=2.5
# for k=1.79905e-07 to 11.3657 h/Mpc,
# number of wavenumbers equal to 140
#    1:k (h/Mpc)              2:P (Mpc/h)^3        
       1.799052017833e-07       2.156318429463e-01 
       2.264872302389e-07       2.702606981354e-01 
       2.851305295947e-07       3.387294006890e-01 
       3.589580693850e-07       4.245441812300e-01 
       4.519014353174e-07       5.320995499206e-01 
       5.689102005473e-07       6.669033354967e-01 
       7.162155084980e-07       8.358587368232e-01 
       9.016619039692e-07       1.047617829557e+00 
       1.135125083754e-06       1.313024630770e+00 
       1.429037813502e-06       1.645670409033e+00 
       1.799052017833e-06       2.062589676190e+00 
       2.264872302389e-06       2.585132497365e+00 
       2.851305295947e-06       3.240057785648e+00 
       3.589580693850e-06       4.060903547217e+00 
       4.519014353174e-06       5.089704228998e+00 
       5.689102005473e-06       6.379143050813e+00 
       7.162155084980e-06       7.995249435042e+00 
       9.016619039692e-06       1.002077945800e+01 
       1.135125083754e-05       1.255945200654e+01 
       1.429037813502e-05       1.574125671080e+01 
       1.799052017833e-05       1.972910383273e+01 
       2.264872302389e-05       2.472715326073e+01 
       2.851305295947e-05       3.099124258163e+01 
       3.589580693850e-05       3.884193509619e+01 
       4.519014353174e-05       4.868082998868e+01 
       5.689102005473e-05       6.101091827002e+01 
       7.162155084980e-05       7.646192512160e+01 
       9.016619039692e-05       9.582173492025e+01 
       1.135125083754e-04       1.200751123966e+02 
       1.429037813502e-04       1.504509282898e+02 
       1.799052017833e-04       1.884788071563e+02 
       2.264872302389e-04       2.360552317178e+02 
       2.851305295947e-04       2.955171427871e+02 
       3.589580693850e-04       3.697172069312e+02 
       4.519014353174e-04       4.620884394452e+02 
       5.689102005473e-04       5.766770377503e+02 
       7.162155084980e-04       7.181145595922e+02 
       9.016619039692e-04       8.915014250995e+02 
       1.135125083754e-03       1.102181261066e+03 
       1.429037813502e-03       1.355348218727e+03 
       1.799052017833e-03       1.655283448945e+03 
       2.264872302389e-03       2.004035890952e+03 
       2.851305295947e-03       2.399809856260e+03 
       3.589580693850e-03       2.835067908857e+03 
       4.519014353174e-03       3.294167762682e+03 
       5.689102005473e-03       3.751136717639e+03 
       7.162155084980e-03       4.167786275688e+03 
       9.016619039692e-03       4.492548203490e+03 
       1.135125083754e-02       4.661227251299e+03 
       1.429037813502e-02       4.602969573138e+03 
       1.799052015525e-02       4.258956655625e+03 
       2.264869513801e-02       3.623759095169e+03 
       2.850742860213e-02       2.803994993954e+03 
       3.563552336017e-02       2.049878925166e+03 
       4.228051899521e-02       1.640298609124e+03 
       4.703477697791e-02       1.479208625122e+03 
       5.084741785250e-02       1.398732948258e+03 
       5.420173197667e-02       1.346337052118e+03 
       5.730386753833e-02       1.302367568659e+03 
       6.025897609666e-02       1.257572175052e+03 
       6.312846697182e-02       1.207303828422e+03 
       6.595189121839e-02       1.149598299617e+03 
       6.875669386549e-02       1.084361811591e+03 
       7.156309140728e-02       1.012894851491e+03 
       7.438673405172e-02       9.374950621738e+02 
       7.724026105754e-02       8.610599325836e+02 
       8.013425997045e-02       7.866832021901e+02 
       8.307788482097e-02       7.172758869160e+02 
       8.607926920291e-02       6.552521267874e+02 
       8.914581066623e-02       6.023112857595e+02 
       9.228437139772e-02       5.593243538011e+02 
       9.550142269757e-02       5.263081397736e+02 
       9.880315065566e-02       5.024536093699e+02 
       1.021955343768e-01       4.861824383661e+02 
       1.056844043661e-01       4.752335693688e+02 
       1.092754863184e-01       4.668201270577e+02 
       1.129744340276e-01       4.579160186683e+02 
       1.167868541283e-01       4.457040499209e+02 
       1.207183247160e-01       4.281368794937e+02 
       1.247744094523e-01       4.044585093830e+02 
       1.289606684621e-01       3.754736643189e+02 
       1.332826671404e-01       3.433980270911e+02 
       1.377459838560e-01       3.112810512899e+02 
       1.423562174603e-01       2.821869955839e+02 
       1.471189954569e-01       2.584229848536e+02 
       1.520399836583e-01       2.410400758437e+02 
       1.571248981333e-01       2.296666553104e+02 
       1.623795202375e-01       2.226221575438e+02 
       1.678097155097e-01       2.172962930116e+02 
       1.734214572116e-01       2.108489825166e+02 
       1.792208552898e-01       2.011740125545e+02 
       1.852141915488e-01       1.877598845785e+02 
       1.914079618461e-01       1.719066357299e+02 
       1.978089261710e-01       1.560513167835e+02 
       2.044241675454e-01       1.425605377214e+02 
       2.112611608067e-01       1.326805239482e+02 
       2.183278525165e-01       1.261104437314e+02 
       2.256327534947e-01       1.212651723629e+02 
       2.331850458317e-01       1.161146658568e+02 
       2.409947067139e-01       1.093130932774e+02 
       2.490726520364e-01       1.009699604899e+02 
       2.574309036278e-01       9.242388814051e+01 
       2.660827850348e-01       8.515730091492e+01 
       2.750431522997e-01       7.974004254644e+01 
       2.843286681448e-01       7.555671386073e+01 
       2.939581306203e-01       7.142301476523e+01 
       3.039528708620e-01       6.661088917120e+01 
       3.143372395015e-01       6.140684080538e+01 
       3.251392080665e-01       5.665111082061e+01 
       3.363911212611e-01       5.278914026404e+01 
       3.481306496467e-01       4.947882489972e+01 
       3.604020120409e-01       4.611099286061e+01 
       3.732575662134e-01       4.256604219595e+01 
       3.867599105853e-01       3.923445221995e+01 
       4.009847076310e-01       3.634472403536e+01 
       4.160245469846e-01       3.365941399325e+01 
       4.319943401064e-01       3.095324633756e+01 
       4.490390284918e-01       2.836296985855e+01 
       4.673448877467e-01       2.600140009407e+01 
       4.871566054557e-01       2.372542121473e+01 
       5.088039826684e-01       2.150699553669e+01 
       5.327453827634e-01       1.941261954551e+01 
       5.596418204496e-01       1.737047659392e+01 
       5.904904652707e-01       1.538265776726e+01 
       6.268813449860e-01       1.342293385779e+01 
       6.715292977561e-01       1.146564527652e+01 
       7.294671305734e-01       9.472746788117e+00 
       8.108690253115e-01       7.406303087520e+00 
       9.369560066394e-01       5.273409545011e+00 
       1.140775561970e+00       3.300803750732e+00 
       1.430965245967e+00       1.909517560071e+00 
       1.801336369058e+00       1.086695503002e+00 
       2.267747328564e+00       6.139014043935e-01 
       2.854924738761e+00       3.445516862002e-01 
       3.594137302386e+00       1.922309779087e-01 
       4.524750783451e+00       1.066657657398e-01 
       5.696323743322e+00       5.889156334690e-02 
       7.171246714274e+00       3.236518513925e-02 
       9.028064722845e+00       1.771126225052e-02 
       1.136566009891e+01       9.653743176865e-03 
