# Matter power spectrum P(k) at redshift z=2
# for k=1.66466e-07 to 10.5181 h/Mpc,
# number of wavenumbers equal to 140
#    1:k (h/Mpc)              2:P (Mpc/h)^3        
       1.664662445281e-07       6.679877224910e-01 
       2.095685854423e-07       8.295039908589e-01 
       2.638312177271e-07       1.030074127487e+00 
       3.321438244212e-07       1.279141172419e+00 
       4.181443009344e-07       1.588431446862e+00 
       5.264124862432e-07       1.972506639776e+00 
       6.627140560173e-07       2.449449384826e+00 
       8.343075658734e-07       3.041714605448e+00 
       1.050330995930e-06       3.777186708618e+00 
       1.322288381572e-06       4.690492397801e+00 
       1.664662445281e-06       5.824630908587e+00 
       2.095685854423e-06       7.232998405167e+00 
       2.638312177271e-06       8.981901832455e+00 
       3.321438244212e-06       1.115368052588e+01 
       4.181443009344e-06       1.385058245905e+01 
       5.264124862432e-06       1.719957745960e+01 
       6.627140560173e-06       2.135833365275e+01 
       8.343075658734e-06       2.652263783361e+01 
       1.050330995930e-05       3.293560780020e+01 
       1.322288381572e-05       4.089912772993e+01 
       1.664662445281e-05       5.078803988785e+01 
       2.095685854423e-05       6.306775058968e+01 
       2.638312177271e-05       7.831605945974e+01 
       3.321438244212e-05       9.725020045591e+01 
       4.181443009344e-05       1.207602907574e+02 
       5.264124862432e-05       1.499506111236e+02 
       6.627140560173e-05       1.861903652540e+02 
       8.343075658734e-05       2.311757295826e+02 
       1.050330995930e-04       2.870049908306e+02 
       1.322288381572e-04       3.562681389865e+02 
       1.664662445281e-04       4.421509936347e+02 
       2.095685854423e-04       5.485510122897e+02 
       2.638312177271e-04       6.801961411000e+02 
       3.321438244212e-04       8.427479311231e+02 
       4.181443009344e-04       1.042855001701e+03 
       5.264124862432e-04       1.288106147196e+03 
       6.627140560173e-04       1.586825969140e+03 
       8.343075658734e-04       1.947674398493e+03 
       1.050330995930e-03       2.379019590467e+03 
       1.322288381572e-03       2.887895659234e+03 
       1.664662445281e-03       3.478076408837e+03 
       2.095685854423e-03       4.147280827075e+03 
       2.638312177271e-03       4.884230852570e+03 
       3.321438244212e-03       5.665483681871e+03 
       4.181443009344e-03       6.451993212806e+03 
       5.264124862432e-03       7.186955727909e+03 
       6.627140560173e-03       7.794927232064e+03 
       8.343075658734e-03       8.182878351859e+03 
       1.050330995930e-02       8.244671919013e+03 
       1.322288381572e-02       7.874396087041e+03 
       1.664662444675e-02       7.000948335186e+03 
       2.095684852694e-02       5.659058635880e+03 
       2.638051138391e-02       4.080954007693e+03 
       3.306438380512e-02       2.713457611120e+03 
       3.970434172653e-02       1.996909865669e+03 
       4.448389619609e-02       1.756128697569e+03 
       4.824017376493e-02       1.660417265656e+03 
       5.150936817374e-02       1.610193439557e+03 
       5.451449815152e-02       1.571095773882e+03 
       5.736645256819e-02       1.527551041828e+03 
       6.012882488378e-02       1.471908122161e+03 
       6.284202656670e-02       1.401105029911e+03 
       6.553380743734e-02       1.315326270919e+03 
       6.822443447339e-02       1.217197919361e+03 
       7.092948436027e-02       1.111069797875e+03 
       7.366145942018e-02       1.002261519855e+03 
       7.643077658016e-02       8.962929601822e+02 
       7.924640073625e-02       7.981817674508e+02 
       8.211626577631e-02       7.119038096124e+02 
       8.504756320151e-02       6.400812550929e+02 
       8.804694507490e-02       5.839035442211e+02 
       9.112066971641e-02       5.432184499436e+02 
       9.427470803548e-02       5.166903082755e+02 
       9.751482211525e-02       5.019340879167e+02 
       1.008466238040e-01       4.956059882663e+02 
       1.042756186350e-01       4.935329449014e+02 
       1.078072388284e-01       4.910333957630e+02 
       1.114468681017e-01       4.835521945958e+02 
       1.151998603353e-01       4.675765223967e+02 
       1.190715536881e-01       4.415774446245e+02 
       1.230672814560e-01       4.065676070685e+02 
       1.271923807666e-01       3.659258065897e+02 
       1.314522000751e-01       3.244425684655e+02 
       1.358521063403e-01       2.869366440737e+02 
       1.403974927104e-01       2.570038353584e+02 
       1.450937875122e-01       2.363131429277e+02 
       1.499464653188e-01       2.244775852416e+02 
       1.549610608568e-01       2.192657121070e+02 
       1.601431865056e-01       2.170370005377e+02 
       1.654985541340e-01       2.135772115524e+02 
       1.710330020218e-01       2.054586435320e+02 
       1.767525276197e-01       1.914796418402e+02 
       1.826633269217e-01       1.732377930617e+02 
       1.887718412668e-01       1.542488294838e+02 
       1.950848124559e-01       1.381072535088e+02 
       2.016093471800e-01       1.268661891695e+02 
       2.083529919206e-01       1.203927936795e+02 
       2.153238197158e-01       1.166684766199e+02 
       2.225305305117e-01       1.128163887774e+02 
       2.299825672555e-01       1.066490907390e+02 
       2.376902504770e-01       9.796417002322e+01 
       2.456649348846e-01       8.848681004324e+01 
       2.539191925326e-01       8.040397937132e+01 
       2.624670284829e-01       7.477289616894e+01 
       2.713241366975e-01       7.097961296583e+01 
       2.805082063218e-01       6.742527894920e+01 
       2.900392917991e-01       6.290793640210e+01 
       2.999402647273e-01       5.759668555367e+01 
       3.102373715585e-01       5.261944718463e+01 
       3.209609299204e-01       4.875457205096e+01 
       3.321462086977e-01       4.570335268015e+01 
       3.438345549068e-01       4.262165078540e+01 
       3.560748567759e-01       3.919356355777e+01 
       3.689254720907e-01       3.588481983084e+01 
       3.824568117483e-01       3.310711461150e+01 
       3.967548641663e-01       3.063145432845e+01 
       4.119261005986e-01       2.809686792988e+01 
       4.281044578324e-01       2.561908528286e+01 
       4.454615345962e-01       2.340795765977e+01 
       4.642219205441e-01       2.131386032671e+01 
       4.846870274672e-01       1.924771704482e+01 
       5.072736110978e-01       1.731791150739e+01 
       5.325789479123e-01       1.545460865709e+01 
       5.614972032531e-01       1.364323174737e+01 
       5.954407847353e-01       1.187716089425e+01 
       6.367934736106e-01       1.012613011400e+01 
       6.899147081290e-01       8.361536798249e+00 
       7.635077327808e-01       6.552317436339e+00 
       8.758191503479e-01       4.696371394491e+00 
       1.057987859856e+00       2.954437107477e+00 
       1.324358140783e+00       1.691386054551e+00 
       1.667004310317e+00       9.482649663810e-01 
       2.098632157854e+00       5.279197310063e-01 
       2.642021351231e+00       2.921352546831e-01 
       3.326107817567e+00       1.607686120827e-01 
       4.187321653903e+00       8.802690920275e-02 
       5.271525637454e+00       4.797335777992e-02 
       6.636457583916e+00       2.603203231315e-02 
       8.354805096686e+00       1.406926104071e-02 
       1.051807644680e+01       7.575318176991e-03 
