# Matter power spectrum P(k) at redshift z=2.5
# for k=2.05578e-07 to 10.3139 h/Mpc,
# number of wavenumbers equal to 139
#    1:k (h/Mpc)              2:P (Mpc/h)^3        
       2.055778185370e-07       1.656592658421e-01 
       2.588071398574e-07       2.066406370477e-01 
       3.258188851203e-07       2.577601237256e-01 
       4.101816741204e-07       3.215257285151e-01 
       5.163881330024e-07       4.010658921560e-01 
       6.500941429857e-07       5.002829802777e-01 
       8.184200366633e-07       6.240447387200e-01 
       1.030329781677e-06       7.784231125767e-01 
       1.297108344681e-06       9.709921446063e-01 
       1.632962656970e-06       1.211199567767e+00 
       2.055778185370e-06       1.510830322387e+00 
       2.588071398574e-06       1.884584736366e+00 
       3.258188851203e-06       2.350799732752e+00 
       4.101816741204e-06       2.932348439524e+00 
       5.163881330024e-06       3.657762325772e+00 
       6.500941429857e-06       4.562630890690e+00 
       8.184200366633e-06       5.691347522494e+00 
       1.030329781677e-05       7.099287080763e+00 
       1.297108344681e-05       8.855521819678e+00 
       1.632962656970e-05       1.104620850796e+01 
       2.055778185370e-05       1.377881208549e+01 
       2.588071398574e-05       1.718737151014e+01 
       3.258188851203e-05       2.143906293700e+01 
       4.101816741204e-05       2.674237601020e+01 
       5.163881330024e-05       3.335729203972e+01 
       6.500941429857e-05       4.160793909086e+01 
       8.184200366633e-05       5.189829683650e+01 
       1.030329781677e-04       6.473162737033e+01 
       1.297108344681e-04       8.073440037005e+01 
       1.632962656970e-04       1.006855258934e+02 
       2.055778185370e-04       1.255516317474e+02 
       2.588071398574e-04       1.565287851869e+02 
       3.258188851203e-04       1.950902173882e+02 
       4.101816741204e-04       2.430378936427e+02 
       5.163881330024e-04       3.025527613839e+02 
       6.500941429857e-04       3.762341104937e+02 
       8.184200366633e-04       4.671138366188e+02 
       1.030329781677e-03       5.786294704914e+02 
       1.297108344681e-03       7.145406632727e+02 
       1.632962656970e-03       8.787572395275e+02 
       2.055778185370e-03       1.074978764716e+03 
       2.588071398574e-03       1.306021111551e+03 
       3.258188851203e-03       1.572884753582e+03 
       4.101816741204e-03       1.873546124682e+03 
       5.163881330024e-03       2.201378506962e+03 
       6.500941429857e-03       2.541737651850e+03 
       8.184200366633e-03       2.876155385431e+03 
       1.030329781677e-02       3.172830697699e+03 
       1.297108344681e-02       3.391374081942e+03 
       1.632962656963e-02       3.484616831393e+03 
       2.055778150983e-02       3.408848906874e+03 
       2.588049755744e-02       3.146529282753e+03 
       3.255622997382e-02       2.739955799026e+03 
       4.027684593173e-02       2.327852418815e+03 
       4.653866184200e-02       2.079934432661e+03 
       5.113066236926e-02       1.939526673100e+03 
       5.495724056605e-02       1.839865210473e+03 
       5.839281434134e-02       1.757722638593e+03 
       6.160744347267e-02       1.683330730202e+03 
       6.469244160552e-02       1.611939786979e+03 
       6.770312773820e-02       1.541202749427e+03 
       7.067612214654e-02       1.470159239201e+03 
       7.363739318611e-02       1.398748181740e+03 
       7.660641424839e-02       1.327515377016e+03 
       7.959849009913e-02       1.257396042676e+03 
       8.262614309615e-02       1.189526504531e+03 
       8.569998188206e-02       1.125072581833e+03 
       8.882926860413e-02       1.065075179791e+03 
       9.202230204916e-02       1.010318387166e+03 
       9.528668378772e-02       9.612277692518e+02 
       9.862950735537e-02       9.178051467259e+02 
       1.020574952495e-01       8.796047865384e+02 
       1.055770995859e-01       8.457570390877e+02 
       1.091945768477e-01       8.150450479717e+02 
       1.129160437886e-01       7.860397362247e+02 
       1.167475194018e-01       7.572900336411e+02 
       1.206949564675e-01       7.275515434330e+02 
       1.247642652737e-01       6.960158080076e+02 
       1.289613314908e-01       6.624843895125e+02 
       1.332920297756e-01       6.274289049595e+02 
       1.377622344068e-01       5.918978743288e+02 
       1.423778280799e-01       5.572746070029e+02 
       1.471447098699e-01       5.249385217352e+02 
       1.520688033012e-01       4.959177085329e+02 
       1.571560654156e-01       4.706246901481e+02 
       1.624124977010e-01       4.487465982416e+02 
       1.678441597271e-01       4.293279183576e+02 
       1.734571863183e-01       4.110454622428e+02 
       1.792578090923e-01       3.926233083380e+02 
       1.852523831807e-01       3.732654927542e+02 
       1.914474199607e-01       3.529331065058e+02 
       1.978496266342e-01       3.323191273935e+02 
       2.044659535279e-01       3.125048826434e+02 
       2.113036500463e-01       2.944503120560e+02 
       2.183703303079e-01       2.785625173173e+02 
       2.256740496419e-01       2.645462296257e+02 
       2.332233933408e-01       2.516044392757e+02 
       2.410275793680e-01       2.388906255319e+02 
       2.490965771336e-01       2.259702411963e+02 
       2.574412450129e-01       2.130104586161e+02 
       2.660734900284e-01       2.005720003176e+02 
       2.750064541013e-01       1.891588312655e+02 
       2.842547325848e-01       1.788611702738e+02 
       2.938346325195e-01       1.693444962774e+02 
       3.037644803574e-01       1.601641776684e+02 
       3.140649919961e-01       1.511263229786e+02 
       3.247597221723e-01       1.423791445612e+02 
       3.358756160371e-01       1.341769947754e+02 
       3.474436937830e-01       1.265860206131e+02 
       3.594999105585e-01       1.194398169210e+02 
       3.720862502215e-01       1.125553382094e+02 
       3.852521353189e-01       1.059210745259e+02 
       3.990562711437e-01       9.963250602102e+01 
       4.135690955797e-01       9.370558188894e+01 
       4.288760900965e-01       8.805118266506e+01 
       4.450823404061e-01       8.261243487471e+01 
       4.623189531381e-01       7.740864432398e+01 
       4.807523023413e-01       7.243523070746e+01 
       5.005977210892e-01       6.764180242258e+01 
       5.221404175013e-01       6.300519987165e+01 
       5.457686016405e-01       5.851014509208e+01 
       5.720282090115e-01       5.411647803647e+01 
       6.017178866717e-01       4.978945679918e+01 
       6.360637737945e-01       4.548128824603e+01 
       6.770638840187e-01       4.112816636337e+01 
       7.282213532437e-01       3.664005266013e+01 
       7.962294283820e-01       3.188683344177e+01 
       8.949371818781e-01       2.670623016124e+01 
       1.052180358537e+00       2.107337742039e+01 
       1.299977348512e+00       1.568192617009e+01 
       1.634662180914e+00       1.154999086679e+01 
       2.057886639917e+00       8.569380726193e+00 
       2.590725688876e+00       6.367612564263e+00 
       3.261530404674e+00       4.703199755358e+00 
       4.106023507783e+00       3.428906063554e+00 
       5.169177335372e+00       2.452921958676e+00 
       6.507608705570e+00       1.714043439039e+00 
       8.192593969455e+00       1.166521219383e+00 
       1.031386473666e+01       7.720764670872e-01 
