# Matter power spectrum P(k) at redshift z=2.5
# for k=7.92673e-06 to 12.5806 h/Mpc,
# number of wavenumbers equal to 124
#    1:k (h/Mpc)              2:P (Mpc/h)^3        
       7.926725799520e-06       1.552774776712e+01 
       9.979156541340e-06       1.950191984204e+01 
       1.256301375816e-05       2.449320388040e+01 
       1.581589726887e-05       3.076187375650e+01 
       1.991103498211e-05       3.863477136115e+01 
       2.506650791410e-05       4.852229146482e+01 
       3.155686379800e-05       6.093967436383e+01 
       3.972773775183e-05       7.653365080589e+01 
       5.001425860888e-05       9.611571147759e+01 
       6.296422111476e-05       1.207035277287e+02 
       7.926725799520e-05       1.515722264274e+02 
       9.979156541340e-05       1.903173295285e+02 
       1.256301375816e-04       2.389309361236e+02 
       1.581589726887e-04       2.998918205412e+02 
       1.991103498211e-04       3.762678610245e+02 
       2.506650791410e-04       4.718244980731e+02 
       3.155686379800e-04       5.911242180822e+02 
       3.972773775183e-04       7.395882346391e+02 
       5.001425860888e-04       9.234744127471e+02 
       6.296422111476e-04       1.149715082421e+03 
       7.926725799520e-04       1.425572916218e+03 
       9.979156541340e-04       1.758102405311e+03 
       1.256301375816e-03       2.153312068692e+03 
       1.581589726887e-03       2.614634807064e+03 
       1.991103498211e-03       3.140535108400e+03 
       2.506650791410e-03       3.721993150360e+03 
       3.155686379800e-03       4.339983019667e+03 
       3.972773775183e-03       4.962644518062e+03 
       5.001425860888e-03       5.543731201738e+03 
       6.296422111476e-03       6.022313932452e+03 
       7.926725799520e-03       6.322937455507e+03 
       9.979156541340e-03       6.360946140258e+03 
       1.256301375816e-02       6.051310099277e+03 
       1.581589726669e-02       5.336828518151e+03 
       1.991103040614e-02       4.245886028400e+03 
       2.506505742174e-02       2.968998093745e+03 
       3.145877824949e-02       1.869201537663e+03 
       3.809223975352e-02       1.296017580339e+03 
       4.293456942426e-02       1.124979428552e+03 
       4.667988518678e-02       1.073914718554e+03 
       4.991099131499e-02       1.057557971135e+03 
       5.286669312081e-02       1.047866595567e+03 
       5.566339140172e-02       1.032211033204e+03 
       5.836689985306e-02       1.004318681554e+03 
       6.101860781388e-02       9.616575162718e+02 
       6.364670833200e-02       9.044496043440e+02 
       6.627165775319e-02       8.350628140680e+02 
       6.890909215159e-02       7.573937636223e+02 
       7.157150255815e-02       6.762135138487e+02 
       7.426925418137e-02       5.964416784429e+02 
       7.701123600790e-02       5.225210219552e+02 
       7.980529090606e-02       4.579218350733e+02 
       8.265850950523e-02       4.048762652344e+02 
       8.557743628379e-02       3.643627141275e+02 
       8.856821719502e-02       3.362318392778e+02 
       9.163670722475e-02       3.194498507619e+02 
       9.478854978073e-02       3.122253509185e+02 
       9.802923583452e-02       3.120363245606e+02 
       1.013641482337e-01       3.156760975218e+02 
       1.047985949935e-01       3.193500483600e+02 
       1.083378343240e-01       3.191625199888e+02 
       1.119870934563e-01       3.118952678328e+02 
       1.157515828634e-01       2.959507617157e+02 
       1.196365071683e-01       2.719153275720e+02 
       1.236470738242e-01       2.425129584495e+02 
       1.277885005197e-01       2.117868100233e+02 
       1.320660221761e-01       1.838710300692e+02 
       1.364848983492e-01       1.618457121762e+02 
       1.410504218143e-01       1.471917202051e+02 
       1.457679290927e-01       1.397057457661e+02 
       1.506428136636e-01       1.377492674040e+02 
       1.556805425951e-01       1.385664790871e+02 
       1.608866773251e-01       1.387569343494e+02 
       1.662668993180e-01       1.351003788706e+02 
       1.718270413333e-01       1.262874340927e+02 
       1.775731250573e-01       1.135801924514e+02 
       1.835114058896e-01       9.989528957420e+01 
       1.896484257383e-01       8.814777545798e+01 
       1.959910747819e-01       8.010797253871e+01 
       2.025466633088e-01       7.599029074653e+01 
       2.093230049636e-01       7.437499487293e+01 
       2.163285130354e-01       7.286847764089e+01 
       2.235723118374e-01       6.950697951276e+01 
       2.310643657823e-01       6.385989512807e+01 
       2.388156294925e-01       5.719785800129e+01 
       2.468382232643e-01       5.147229195925e+01 
       2.551456394871e-01       4.769023408178e+01 
       2.637529873361e-01       4.545058869422e+01 
       2.726772853423e-01       4.353326323719e+01 
       2.819378145277e-01       4.079789932838e+01 
       2.915565490070e-01       3.728084532789e+01 
       3.015586867613e-01       3.388290434946e+01 
       3.119733114314e-01       3.133644722991e+01 
       3.228342275417e-01       2.945649868425e+01 
       3.341810282769e-01       2.757016640263e+01 
       3.460604795207e-01       2.538370144724e+01 
       3.585283407222e-01       2.320491660756e+01 
       3.716517996181e-01       2.137557587976e+01 
       3.855127863309e-01       1.983171912562e+01 
       4.002125746910e-01       1.823405151545e+01 
       4.158783141571e-01       1.660861961182e+01 
       4.326725381267e-01       1.518689478178e+01 
       4.508074071644e-01       1.385841298332e+01 
       4.705667603823e-01       1.252833523398e+01 
       4.923415878571e-01       1.128554550137e+01 
       5.166897072096e-01       1.009448629345e+01 
       5.444415981170e-01       8.929024356577e+00 
       5.769001366723e-01       7.799384244856e+00 
       6.162458067468e-01       6.676991958326e+00 
       6.664266190155e-01       5.547179483818e+00 
       7.352475638209e-01       4.389631237253e+00 
       8.390783156413e-01       3.196949917462e+00 
       1.007392435476e+00       2.052499941776e+00 
       1.258388275391e+00       1.189249694260e+00 
       1.583805711167e+00       6.719271413895e-01 
       1.993889620407e+00       3.770130720260e-01 
       2.510158305992e+00       2.103258926073e-01 
       3.160102079039e+00       1.167177533182e-01 
       3.978332811165e+00       6.445870525278e-02 
       5.008424272551e+00       3.543947132112e-02 
       6.305232589761e+00       1.940443312253e-02 
       7.937817534522e+00       1.058374790805e-02 
       9.993120208396e+00       5.752030603814e-03 
       1.258059297346e+01       3.115421417995e-03 
