# Matter power spectrum P(k) at redshift z=0.5
# for k=2.15888e-07 to 10.831 h/Mpc,
# number of wavenumbers equal to 139
#    1:k (h/Mpc)              2:P (Mpc/h)^3        
       2.158879963518e-07       4.627531227570e-01 
       2.717868847086e-07       5.803892474061e-01 
       3.421594157520e-07       7.279295629463e-01 
       4.307531833748e-07       9.129759910509e-01 
       5.422861287618e-07       1.145062931891e+00 
       6.826977879617e-07       1.436148517726e+00 
       8.594655938407e-07       1.801230747420e+00 
       1.082003076649e-06       2.259120247439e+00 
       1.362161168833e-06       2.833409474516e+00 
       1.714859310403e-06       3.553688296508e+00 
       2.158879963518e-06       4.457068579792e+00 
       2.717868847086e-06       5.590096331594e+00 
       3.421594157520e-06       7.011149908045e+00 
       4.307531833748e-06       8.793447830201e+00 
       5.422861287618e-06       1.102882113962e+01 
       6.826977879617e-06       1.383244457312e+01 
       8.594655938407e-06       1.734877014754e+01 
       1.082003076649e-05       2.175896852553e+01 
       1.362161168833e-05       2.729026087545e+01 
       1.714859310403e-05       3.422762063546e+01 
       2.158879963518e-05       4.292844534611e+01 
       2.717868847086e-05       5.384094897967e+01 
       3.421594157520e-05       6.752721147776e+01 
       4.307531833748e-05       8.469205136516e+01 
       5.422861287618e-05       1.062191659870e+02 
       6.826977879617e-05       1.332163161050e+02 
       8.594655938407e-05       1.670717143796e+02 
       1.082003076649e-04       2.095241911323e+02 
       1.362161168833e-04       2.627501029842e+02 
       1.714859310403e-04       3.294702019598e+02 
       2.158879963518e-04       4.130795615938e+02 
       2.717868847086e-04       5.178027496908e+02 
       3.421594157520e-04       6.488741192816e+02 
       4.307531833748e-04       8.127386592301e+02 
       5.422861287618e-04       1.017262093527e+03 
       6.826977879617e-04       1.271930972887e+03 
       8.594655938407e-04       1.588015126580e+03 
       1.082003076649e-03       1.978644244062e+03 
       1.362161168833e-03       2.458679465257e+03 
       1.714859310403e-03       3.044153459713e+03 
       2.158879963518e-03       3.751079215571e+03 
       2.717868847086e-03       4.593408027063e+03 
       3.421594157520e-03       5.579808480532e+03 
       4.307531833748e-03       6.709180417123e+03 
       5.422861287618e-03       7.964380948654e+03 
       6.826977879617e-03       9.304420554139e+03 
       8.594655938407e-03       1.065561297789e+04 
       1.082003076649e-02       1.190233170478e+04 
       1.362161168833e-02       1.288088750222e+04 
       1.714859310397e-02       1.338538291491e+04 
       2.158879934358e-02       1.320583407165e+04 
       2.717849456127e-02       1.222815221284e+04 
       3.419189932877e-02       1.059972097771e+04 
       4.235140458201e-02       8.914318897175e+03 
       4.904344903563e-02       7.924745488866e+03 
       5.393368028955e-02       7.402256697431e+03 
       5.799641972061e-02       7.054800944004e+03 
       6.163814686635e-02       6.780186676347e+03 
       6.504245490137e-02       6.534530564942e+03 
       6.830750604267e-02       6.295529341873e+03 
       7.149258717899e-02       6.051335755544e+03 
       7.463685493624e-02       5.796389694435e+03 
       7.776802539396e-02       5.529512659226e+03 
       8.090685101454e-02       5.252793977843e+03 
       8.406962079015e-02       4.970729085011e+03 
       8.726964754611e-02       4.689404193047e+03 
       9.051819872181e-02       4.415670897402e+03 
       9.382510345741e-02       4.156324865412e+03 
       9.719916228135e-02       3.917338431536e+03 
       1.006484314838e-01       3.703201812224e+03 
       1.041804251309e-01       3.516417722249e+03 
       1.078022612825e-01       3.357177059333e+03 
       1.115207693836e-01       3.223232770194e+03 
       1.153425699934e-01       3.109997144749e+03 
       1.192741344042e-01       3.010906473906e+03 
       1.233218293951e-01       2.918108935725e+03 
       1.274919508742e-01       2.823503854857e+03 
       1.317907491726e-01       2.720066823906e+03 
       1.362244481025e-01       2.603246235000e+03 
       1.407992594546e-01       2.472071497207e+03 
       1.455213943196e-01       2.329567308626e+03 
       1.503970724283e-01       2.182200196032e+03 
       1.554325305840e-01       2.038380932027e+03 
       1.606340311772e-01       1.906387597464e+03 
       1.660078717295e-01       1.792281163557e+03 
       1.715603963774e-01       1.698364222675e+03 
       1.772980101924e-01       1.622553192793e+03 
       1.832271972157e-01       1.558852425007e+03 
       1.893545430810e-01       1.498982363575e+03 
       1.956867630943e-01       1.434962955503e+03 
       2.022307366398e-01       1.361954639895e+03 
       2.089935488015e-01       1.280154181532e+03 
       2.159825401201e-01       1.194622059156e+03 
       2.232053654681e-01       1.112876941750e+03 
       2.306700631292e-01       1.041375847074e+03 
       2.383851353216e-01       9.826166436530e+02 
       2.463596416323e-01       9.341989497623e+02 
       2.546033071471e-01       8.902665412174e+02 
       2.631266474968e-01       8.447628986206e+02 
       2.719411136268e-01       7.948693666572e+02 
       2.810592598805e-01       7.424273582102e+02 
       2.904949400193e-01       6.921998967749e+02 
       3.002635371724e-01       6.482114626110e+02 
       3.103822355228e-01       6.109302061355e+02 
       3.208703439492e-01       5.773248541674e+02 
       3.317496850924e-01       5.436455025706e+02 
       3.430450677172e-01       5.086042233058e+02 
       3.547848662928e-01       4.740643659165e+02 
       3.670017401327e-01       4.426307500955e+02 
       3.797335363316e-01       4.148005399121e+02 
       3.930244377977e-01       3.887482957954e+02 
       4.069264425943e-01       3.627675808758e+02 
       4.215012978495e-01       3.372122144174e+02 
       4.368230677250e-01       3.134495552406e+02 
       4.529816021983e-01       2.915979011196e+02 
       4.700873122227e-01       2.705607991873e+02 
       4.882778837191e-01       2.499889147893e+02 
       5.077279452137e-01       2.305069787496e+02 
       5.286633706974e-01       2.120816336946e+02 
       5.513831077423e-01       1.941611040276e+02 
       5.762937091132e-01       1.768601381480e+02 
       6.039662997413e-01       1.601641003981e+02 
       6.352352996694e-01       1.437751261444e+02 
       6.713797400865e-01       1.276623189510e+02 
       7.144797447490e-01       1.115604941814e+02 
       7.681737323118e-01       9.523463360568e+01 
       8.393950259229e-01       7.832467322019e+01 
       9.424648037362e-01       6.049466432996e+01 
       1.106312533413e+00       4.209517387691e+01 
       1.365345249756e+00       2.593374140998e+01 
       1.716634982557e+00       1.515700111691e+01 
       2.161077366204e+00       8.749241268566e+00 
       2.720635088449e+00       5.007424239579e+00 
       3.425076649012e+00       2.843901606415e+00 
       4.311916030784e+00       1.603916906819e+00 
       5.428380664676e+00       8.988543677868e-01 
       6.833926363653e+00       5.008150119922e-01 
       8.603403561533e+00       2.775604038846e-01 
       1.083104337153e+01       1.530789285639e-01 
