# Matter power spectrum P(k) at redshift z=2.5
# for k=2.10773e-07 to 10.5745 h/Mpc,
# number of wavenumbers equal to 139
#    1:k (h/Mpc)              2:P (Mpc/h)^3        
       2.107731102687e-07       1.244529602555e-01 
       2.653476246401e-07       1.552405708180e-01 
       3.340528676187e-07       1.936445285622e-01 
       4.205476439278e-07       2.415489922117e-01 
       5.294381158109e-07       3.013042300948e-01 
       6.665230979668e-07       3.758419282101e-01 
       8.391028655782e-07       4.688190228505e-01 
       1.056367920586e-06       5.847971156144e-01 
       1.329888419429e-06       7.294662719571e-01 
       1.674230326071e-06       9.099241835754e-01 
       2.107731102687e-06       1.135024389946e+00 
       2.653476246401e-06       1.415810641107e+00 
       3.340528676187e-06       1.766058712619e+00 
       4.205476439278e-06       2.202952245753e+00 
       5.294381158109e-06       2.747925765334e+00 
       6.665230979668e-06       3.427716213254e+00 
       8.391028655782e-06       4.275674552026e+00 
       1.056367920586e-05       5.333401711442e+00 
       1.329888419429e-05       6.652788990677e+00 
       1.674230326071e-05       8.298562748937e+00 
       2.107731102687e-05       1.035145762146e+01 
       2.653476246401e-05       1.291217285753e+01 
       3.340528676187e-05       1.610630360176e+01 
       4.205476439279e-05       2.009048465963e+01 
       5.294381158109e-05       2.506003944269e+01 
       6.665230979668e-05       3.125849208369e+01 
       8.391028655782e-05       3.898937555804e+01 
       1.056367920586e-04       4.863084830556e+01 
       1.329888419429e-04       6.065370569833e+01 
       1.674230326071e-04       7.564341492363e+01 
       2.107731102687e-04       9.432676072321e+01 
       2.653476246401e-04       1.176034664211e+02 
       3.340528676187e-04       1.465825771032e+02 
       4.205476439279e-04       1.826221946051e+02 
       5.294381158109e-04       2.273690295751e+02 
       6.665230979668e-04       2.827910945945e+02 
       8.391028655782e-04       3.511934593445e+02 
       1.056367920586e-03       4.352053563381e+02 
       1.329888419429e-03       5.377270874349e+02 
       1.674230326071e-03       6.618128486366e+02 
       2.107731102687e-03       8.104152282377e+02 
       2.653476246401e-03       9.858931227243e+02 
       3.340528676187e-03       1.189313990432e+03 
       4.205476439279e-03       1.419533554530e+03 
       5.294381158109e-03       1.671920912767e+03 
       6.665230979668e-03       1.936841913800e+03 
       8.391028655782e-03       2.198008334868e+03 
       1.056367920586e-02       2.430834479667e+03 
       1.329888419429e-02       2.601532223667e+03 
       1.674230326068e-02       2.668765467272e+03 
       2.107731084640e-02       2.592014488009e+03 
       2.653462758396e-02       2.352556463068e+03 
       3.338689409996e-02       1.987018624887e+03 
       4.145086017537e-02       1.621098166788e+03 
       4.822799884627e-02       1.410918497555e+03 
       5.314687740730e-02       1.306405015421e+03 
       5.720663886221e-02       1.240454154582e+03 
       6.083304936348e-02       1.190223921220e+03 
       6.421616649441e-02       1.146145088620e+03 
       6.745669071467e-02       1.103402780407e+03 
       7.061504793148e-02       1.059435072032e+03 
       7.373095203744e-02       1.013019384503e+03 
       7.683240443766e-02       9.638644911676e+02 
       7.994030392697e-02       9.123765308516e+02 
       8.307100961883e-02       8.594784353816e+02 
       8.623786020802e-02       8.064381589491e+02 
       8.945212203100e-02       7.546934084854e+02 
       9.272360597019e-02       7.056778035961e+02 
       9.606108295818e-02       6.606596716610e+02 
       9.947257192608e-02       6.206064240279e+02 
       1.029655440891e-01       5.860836546388e+02 
       1.065470706540e-01       5.571921911950e+02 
       1.102239312175e-01       5.335433868180e+02 
       1.140026941984e-01       5.142740182167e+02 
       1.178897769599e-01       4.981072653935e+02 
       1.218914909361e-01       4.834735120129e+02 
       1.260140755510e-01       4.687027522463e+02 
       1.302637237219e-01       4.522848637108e+02 
       1.346466010690e-01       4.331613104700e+02 
       1.391688605138e-01       4.109768066758e+02 
       1.438366536532e-01       3.862007750653e+02 
       1.486561401008e-01       3.600497566236e+02 
       1.536334958657e-01       3.342035263193e+02 
       1.587749217531e-01       3.103858446419e+02 
       1.640866527264e-01       2.899311727806e+02 
       1.695749691362e-01       2.734551079112e+02 
       1.752462107016e-01       2.607014842910e+02 
       1.811067941185e-01       2.505966733905e+02 
       1.871632351574e-01       2.415244044685e+02 
       1.934221761119e-01       2.318067168912e+02 
       1.998904194607e-01       2.202873003051e+02 
       2.065749686186e-01       2.067866546322e+02 
       2.134830766879e-01       1.921675468732e+02 
       2.206223041778e-01       1.779185342491e+02 
       2.280005867593e-01       1.654480809096e+02 
       2.356263142726e-01       1.554486824861e+02 
       2.435084224235e-01       1.476237968882e+02 
       2.516564989134e-01       1.408846314874e+02 
       2.600809061712e-01       1.339467654338e+02 
       2.687929234277e-01       1.260579569706e+02 
       2.778049116299e-01       1.174127960959e+02 
       2.871305057061e-01       1.089267177109e+02 
       2.967848400176e-01       1.015192391323e+02 
       3.067848146024e-01       9.545656425592e+01 
       3.171494121639e-01       9.023062833326e+01 
       3.279000789115e-01       8.503935562223e+01 
       3.390611866425e-01       7.947957343097e+01 
       3.506605993229e-01       7.383493684406e+01 
       3.627303755944e-01       6.867931289871e+01 
       3.753076501565e-01       6.423598757708e+01 
       3.884357534899e-01       6.019155730419e+01 
       4.021656534721e-01       5.613478277579e+01 
       4.165578382132e-01       5.205450932815e+01 
       4.316848136636e-01       4.824785182909e+01 
       4.476344735823e-01       4.481829651336e+01 
       4.645147329061e-01       4.155182768467e+01 
       4.824600333065e-01       3.832048669721e+01 
       5.016406959373e-01       3.525247023480e+01 
       5.222767335430e-01       3.238958833842e+01 
       5.446588859772e-01       2.960809704771e+01 
       5.691818179348e-01       2.691448140511e+01 
       5.963987313092e-01       2.433648632072e+01 
       6.271156940279e-01       2.180754557345e+01 
       6.625642091641e-01       1.933159945190e+01 
       7.047389577823e-01       1.686607473196e+01 
       7.571116200426e-01       1.437863333489e+01 
       8.262610510507e-01       1.181551707350e+01 
       9.257241679063e-01       9.127761226018e+00 
       1.083101512196e+00       6.360251791713e+00 
       1.333436452664e+00       3.910560568033e+00 
       1.675985138230e+00       2.268942563705e+00 
       2.109889434706e+00       1.299576875092e+00 
       2.656193238995e+00       7.381827464060e-01 
       3.343949167111e+00       4.161720886250e-01 
       4.209782582224e+00       2.330389180899e-01 
       5.299802270890e+00       1.296862065820e-01 
       6.672055756308e+00       7.176311886996e-02 
       8.399620540523e+00       3.950536295277e-02 
       1.057449574789e+01       2.164403241044e-02 
