# Matter power spectrum P(k) at redshift z=2.5
# for k=1.63135e-07 to 10.3077 h/Mpc,
# number of wavenumbers equal to 140
#    1:k (h/Mpc)              2:P (Mpc/h)^3        
       1.631353844021e-07       4.662148247524e-01 
       2.053752809866e-07       5.805452533982e-01 
       2.585521601884e-07       7.229130717364e-01 
       3.254978847355e-07       9.001939228218e-01 
       4.097775585788e-07       1.120949570850e+00 
       5.158793816778e-07       1.395841391219e+00 
       6.494536630149e-07       1.738145259357e+00 
       8.176137201522e-07       2.164392705717e+00 
       1.029314689331e-06       2.695169300756e+00 
       1.295830419132e-06       3.356108823637e+00 
       1.631353844021e-06       4.179131226604e+00 
       2.053752809866e-06       5.203984170685e+00 
       2.585521601884e-06       6.480162564510e+00 
       3.254978847355e-06       8.069298785322e+00 
       4.097775585788e-06       1.004813892860e+01 
       5.158793816778e-06       1.251224872427e+01 
       6.494536630149e-06       1.558062781745e+01 
       8.176137201522e-06       1.940145473830e+01 
       1.029314689331e-05       2.415923906183e+01 
       1.295830419132e-05       3.008372410979e+01 
       1.631353844021e-05       3.746096631133e+01 
       2.053752809866e-05       4.664711850458e+01 
       2.585521601884e-05       5.808556767405e+01 
       3.254978847355e-05       7.232822473805e+01 
       4.097775585788e-05       9.006193536232e+01 
       5.158793816778e-05       1.121411710330e+02 
       6.494536630149e-05       1.396283502134e+02 
       8.176137201522e-05       1.738432886911e+02 
       1.029314689331e-04       2.164232919410e+02 
       1.295830419132e-04       2.693950944982e+02 
       1.631353844021e-04       3.352588626773e+02 
       2.053752809866e-04       4.170821692322e+02 
       2.585521601884e-04       5.185971812130e+02 
       3.254978847355e-04       6.442859050191e+02 
       4.097775585788e-04       7.994252399536e+02 
       5.158793816778e-04       9.900477954182e+02 
       6.494536630149e-04       1.222765567353e+03 
       8.176137201522e-04       1.504418691466e+03 
       1.029314689331e-03       1.841539837714e+03 
       1.295830419132e-03       2.239542406296e+03 
       1.631353844021e-03       2.701251458016e+03 
       2.053752809866e-03       3.224592616192e+03 
       2.585521601884e-03       3.800222692757e+03 
       3.254978847355e-03       4.409121304868e+03 
       4.097775585788e-03       5.019916884561e+03 
       5.158793816778e-03       5.587381357353e+03 
       6.494536630149e-03       6.051945932844e+03 
       8.176137201522e-03       6.340775299440e+03 
       1.029314689331e-02       6.371435126130e+03 
       1.295830419132e-02       6.062383979780e+03 
       1.631353843606e-02       5.360043780864e+03 
       2.053752059607e-02       4.294539709149e+03 
       2.585311465377e-02       3.051533969436e+03 
       3.242154908975e-02       1.982082599586e+03 
       3.905594581354e-02       1.425293613829e+03 
       4.385165933713e-02       1.246965380830e+03 
       4.759867285867e-02       1.182566995555e+03 
       5.084943678933e-02       1.152733045725e+03 
       5.383234591701e-02       1.130602927384e+03 
       5.666013743135e-02       1.104056165330e+03 
       5.939712967191e-02       1.067127583286e+03 
       6.208403898681e-02       1.017443447630e+03 
       6.474874180544e-02       9.552063433007e+02 
       6.741154857577e-02       8.825788105330e+02 
       7.008803781937e-02       8.031128357279e+02 
       7.279069164377e-02       7.211362723284e+02 
       7.552989452292e-02       6.411202356266e+02 
       7.831457181214e-02       5.671025041296e+02 
       8.115261357443e-02       5.022510895228e+02 
       8.405116477284e-02       4.486244654022e+02 
       8.701682912057e-02       4.071312770651e+02 
       9.005581530593e-02       3.776326148968e+02 
       9.317404364453e-02       3.590928429736e+02 
       9.637722486348e-02       3.496946724344e+02 
       9.967091882372e-02       3.468959477399e+02 
       1.030605785310e-01       3.474975336426e+02 
       1.065515832040e-01       3.478575282765e+02 
       1.101492631350e-01       3.443687335387e+02 
       1.138589183912e-01       3.341873910175e+02 
       1.176858329521e-01       3.160098632077e+02 
       1.216352855720e-01       2.905551752634e+02 
       1.257125584580e-01       2.604517752485e+02 
       1.299229447216e-01       2.294792255098e+02 
       1.342717554781e-01       2.014508493304e+02 
       1.387643274154e-01       1.792092643928e+02 
       1.434060316197e-01       1.640826309755e+02 
       1.482022844257e-01       1.558126251504e+02 
       1.531585610454e-01       1.527319398846e+02 
       1.582804127192e-01       1.520717137623e+02 
       1.635734881299e-01       1.505566821029e+02 
       1.690435598159e-01       1.454425881507e+02 
       1.746965563316e-01       1.356802153459e+02 
       1.805386009188e-01       1.224336480938e+02 
       1.865760574954e-01       1.084287474907e+02 
       1.928155848342e-01       9.650126058706e+01 
       1.992641999129e-01       8.830641125727e+01 
       2.059293515746e-01       8.380954937814e+01 
       2.128190058684e-01       8.150503856677e+01 
       2.199417447539e-01       7.917206324698e+01 
       2.273068802843e-01       7.505419393349e+01 
       2.349245869569e-01       6.891011890181e+01 
       2.428060556836e-01       6.203694231484e+01 
       2.509636738409e-01       5.615192502498e+01 
       2.594112371973e-01       5.213190339829e+01 
       2.681642012838e-01       4.955766484309e+01 
       2.772399821476e-01       4.720665934645e+01 
       2.866583196293e-01       4.410838566190e+01 
       2.964417206703e-01       4.034158873994e+01 
       3.066160061966e-01       3.676953587597e+01 
       3.172109935868e-01       3.402979097591e+01 
       3.282613587783e-01       3.193034901633e+01 
       3.398077394888e-01       2.981925917008e+01 
       3.518981666972e-01       2.741943050131e+01 
       3.645899500710e-01       2.507419527180e+01 
       3.779522021572e-01       2.312247349232e+01 
       3.920692789986e-01       2.140919916555e+01 
       4.070455644646e-01       1.964515223040e+01 
       4.230122737340e-01       1.790338096279e+01 
       4.401373764144e-01       1.635704691544e+01 
       4.586404947040e-01       1.490123086578e+01 
       4.788160289696e-01       1.345680462385e+01 
       5.010704714283e-01       1.210934238460e+01 
       5.259854049456e-01       1.081168569144e+01 
       5.544297010609e-01       9.548038524468e+00 
       5.877723143428e-01       8.318561574558e+00 
       6.283164363900e-01       7.099640660021e+00 
       6.802584853028e-01       5.872610750942e+00 
       7.519461791095e-01       4.615645611263e+00 
       8.608886233564e-01       3.324983260340e+00 
       1.037606592328e+00       2.104714112647e+00 
       1.297913826075e+00       1.208276389279e+00 
       1.633665331495e+00       6.782811601860e-01 
       2.056660355390e+00       3.781247125781e-01 
       2.589181981657e+00       2.095528410504e-01 
       3.259586992467e+00       1.155052075653e-01 
       4.103576896771e+00       6.335055440992e-02 
       5.166097234596e+00       3.458662619253e-02 
       6.503731088433e+00       1.880283978662e-02 
       8.187712338704e+00       1.018181150245e-02 
       1.030771912766e+01       5.493143125174e-03 
