# Matter power spectrum P(k) at redshift z=1.5
# for k=2.24045e-07 to 11.2405 h/Mpc,
# number of wavenumbers equal to 139
#    1:k (h/Mpc)              2:P (Mpc/h)^3        
       2.240451928360e-07       1.889260415310e-01 
       2.820561866516e-07       2.356632294841e-01 
       3.550877009294e-07       2.939624271310e-01 
       4.470289301156e-07       3.666838849644e-01 
       5.627760799297e-07       4.573954322157e-01 
       7.084931081734e-07       5.705475199038e-01 
       8.919399779606e-07       7.116915671116e-01 
       1.122885904050e-06       8.877523214942e-01 
       1.413629599154e-06       1.107367597410e+00 
       1.779654225239e-06       1.381312059504e+00 
       2.240451928360e-06       1.723025840446e+00 
       2.820561866516e-06       2.149273927719e+00 
       3.550877009294e-06       2.680968666589e+00 
       4.470289301156e-06       3.344195725336e+00 
       5.627760799297e-06       4.171493841896e+00 
       7.084931081734e-06       5.203451117226e+00 
       8.919399779606e-06       6.490696114209e+00 
       1.122885904050e-05       8.096381346593e+00 
       1.413629599154e-05       1.009928078951e+01 
       1.779654225239e-05       1.259765298158e+01 
       2.240451928360e-05       1.571405842476e+01 
       2.820561866516e-05       1.960136604723e+01 
       3.550877009294e-05       2.445024024017e+01 
       4.470289301156e-05       3.049846956633e+01 
       5.627760799297e-05       3.804258250759e+01 
       7.084931081734e-05       4.745229582551e+01 
       8.919399779606e-05       5.918845663247e+01 
       1.122885904050e-04       7.382526451514e+01 
       1.413629599154e-04       9.207768032933e+01 
       1.779654225239e-04       1.148350093309e+02 
       2.240451928360e-04       1.432016190204e+02 
       2.820561866516e-04       1.785454870691e+02 
       3.550877009294e-04       2.225545543661e+02 
       4.470289301156e-04       2.772993751312e+02 
       5.627760799297e-04       3.452980234240e+02 
       7.084931081734e-04       4.295757414938e+02 
       8.919399779606e-04       5.337084318130e+02 
       1.122885904050e-03       6.618367077576e+02 
       1.413629599154e-03       8.186292624489e+02 
       1.779654225239e-03       1.009138597690e+03 
       2.240451928360e-03       1.238438970679e+03 
       2.820561866516e-03       1.510978254173e+03 
       3.550877009294e-03       1.829610974466e+03 
       4.470289301156e-03       2.194201919927e+03 
       5.627760799297e-03       2.596818229944e+03 
       7.084931081734e-03       3.029392926332e+03 
       8.919399779606e-03       3.467182616995e+03 
       1.122885904050e-02       3.874140148441e+03 
       1.413629599154e-02       4.198954942716e+03 
       1.779654225229e-02       4.376767008023e+03 
       2.240451883643e-02       4.340939205241e+03 
       2.820534975850e-02       4.053979571673e+03 
       3.547805118141e-02       3.558960614605e+03 
       4.384543852562e-02       3.040841505082e+03 
       5.057075093512e-02       2.732473560310e+03 
       5.551774730479e-02       2.561816086259e+03 
       5.965041174753e-02       2.444110966764e+03 
       6.336570471701e-02       2.349155259610e+03 
       6.684476492773e-02       2.263765014874e+03 
       7.018519675820e-02       2.181191633159e+03 
       7.344627939273e-02       2.097835572288e+03 
       7.666732958608e-02       2.011988396050e+03 
       7.987627022517e-02       1.923249246087e+03 
       8.309406676315e-02       1.832182842052e+03 
       8.633721428124e-02       1.740059237547e+03 
       8.961922152740e-02       1.648613055418e+03 
       9.295154195202e-02       1.559802837357e+03 
       9.634418219449e-02       1.475572546677e+03 
       9.980611340479e-02       1.397627461069e+03 
       1.033455571469e-01       1.327239460715e+03 
       1.069701887294e-01       1.265095543154e+03 
       1.106872845090e-01       1.211199873057e+03 
       1.145038301524e-01       1.164837797056e+03 
       1.184266010518e-01       1.124611502816e+03 
       1.224622224733e-01       1.088560366669e+03 
       1.266172147147e-01       1.054377990239e+03 
       1.308980270522e-01       1.019727197352e+03 
       1.353110632637e-01       9.826262614833e+02 
       1.398627008655e-01       9.418407042055e+02 
       1.445593057577e-01       8.971793877848e+02 
       1.494072436865e-01       8.495874726418e+02 
       1.544128897388e-01       8.009676678915e+02 
       1.595826369625e-01       7.537420603301e+02 
       1.649229051265e-01       7.102569377640e+02 
       1.704401505855e-01       6.721892437454e+02 
       1.761408781851e-01       6.401118757356e+02 
       1.820316561214e-01       6.133302030653e+02 
       1.881191346581e-01       5.900495208779e+02 
       1.944100695932e-01       5.678791461035e+02 
       2.009113513667e-01       5.445912781431e+02 
       2.076300407021e-01       5.189124687683e+02 
       2.145734116918e-01       4.910096475306e+02 
       2.217490032733e-01       4.623839666430e+02 
       2.291646801086e-01       4.351592416723e+02 
       2.368287039854e-01       4.110908420748e+02 
       2.447498170220e-01       3.907770187849e+02 
       2.529373381945e-01       3.734421189288e+02 
       2.614012750367e-01       3.573975720459e+02 
       2.701524528159e-01       3.409850454210e+02 
       2.792026641008e-01       3.235092338263e+02 
       2.885648424500e-01       3.055605927933e+02 
       2.982532650280e-01       2.884704744677e+02 
       3.082837903771e-01       2.732900634050e+02 
       3.186741394634e-01       2.600585032353e+02 
       3.294442306281e-01       2.478880736584e+02 
       3.406165824588e-01       2.357693658952e+02 
       3.522168031857e-01       2.234129157661e+02 
       3.642741915185e-01       2.113618130550e+02 
       3.768224826311e-01       2.002932964459e+02 
       3.899007854261e-01       1.902785784260e+02 
       4.035547750566e-01       1.807944742330e+02 
       4.178382307601e-01       1.714070960058e+02 
       4.328150478783e-01       1.622415321024e+02 
       4.485619119287e-01       1.536456120110e+02 
       4.651719142587e-01       1.456081599709e+02 
       4.827595348254e-01       1.378286708029e+02 
       5.014676566915e-01       1.302319288068e+02 
       5.214776803763e-01       1.229709166156e+02 
       5.430245113192e-01       1.160054370048e+02 
       5.664194745510e-01       1.091856704009e+02 
       5.920866421209e-01       1.025320698733e+02 
       6.206229115622e-01       9.600786249512e+01 
       6.529024259001e-01       8.951358937613e+01 
       6.902690151737e-01       8.299802847542e+01 
       7.349160695186e-01       7.633293665495e+01 
       7.906969609033e-01       6.936053326791e+01 
       8.649903862520e-01       6.182876237282e+01 
       9.730846886109e-01       5.338845689448e+01 
       1.145570725917e+00       4.382129432058e+01 
       1.416628561988e+00       3.409578637415e+01 
       1.781523737074e+00       2.601610663288e+01 
       2.242775651165e+00       1.966718971081e+01 
       2.823487171512e+00       1.463472485117e+01 
       3.554559750056e+00       1.065278673841e+01 
       4.474925597086e+00       7.549773987360e+00 
       5.633597550059e+00       5.193024202793e+00 
       7.092279115591e+00       3.462494691172e+00 
       8.928650406155e+00       2.240809724340e+00 
       1.124050488933e+01       1.412431790806e+00 
