# Matter power spectrum P(k) at redshift z=1.5
# for k=2.15888e-07 to 10.831 h/Mpc,
# number of wavenumbers equal to 139
#    1:k (h/Mpc)              2:P (Mpc/h)^3        
       2.158879963518e-07       2.073081441129e-01 
       2.717868847086e-07       2.585927611568e-01 
       3.421594157520e-07       3.225643468706e-01 
       4.307531833748e-07       4.023614480323e-01 
       5.422861287618e-07       5.018990360200e-01 
       6.826977879617e-07       6.260605813291e-01 
       8.594655938407e-07       7.809376440664e-01 
       1.082003076649e-06       9.741287349580e-01 
       1.362161168833e-06       1.215112109043e+00 
       1.714859310403e-06       1.515710781888e+00 
       2.158879963518e-06       1.890672580669e+00 
       2.717868847086e-06       2.358393687153e+00 
       3.421594157520e-06       2.941821166822e+00 
       4.307531833748e-06       3.669578753904e+00 
       5.422861287618e-06       4.577371109728e+00 
       6.826977879617e-06       5.709735418343e+00 
       8.594655938407e-06       7.122226189257e+00 
       1.082003076649e-05       8.884140331644e+00 
       1.362161168833e-05       1.108191595234e+01 
       1.714859310403e-05       1.382337112225e+01 
       2.158879963518e-05       1.724298961471e+01 
       2.717868847086e-05       2.150851100129e+01 
       3.421594157520e-05       2.682914463525e+01 
       4.307531833748e-05       3.346580299388e+01 
       5.422861287618e-05       4.174384163032e+01 
       6.826977879617e-05       5.206890153393e+01 
       8.594655938407e-05       6.494657366972e+01 
       1.082003076649e-04       8.100673746747e+01 
       1.362161168833e-04       1.010335465488e+02 
       1.714859310403e-04       1.260021036556e+02 
       2.158879963518e-04       1.571227987927e+02 
       2.717868847086e-04       1.958939240010e+02 
       3.421594157520e-04       2.441622662961e+02 
       4.307531833748e-04       3.041895578382e+02 
       5.422861287618e-04       3.787196168474e+02 
       6.826977879617e-04       4.710369474655e+02 
       8.594655938407e-04       5.850038355838e+02 
       1.082003076649e-03       7.250607124963e+02 
       1.362161168833e-03       8.961655619949e+02 
       1.714859310403e-03       1.103605833320e+03 
       2.158879963518e-03       1.352556910693e+03 
       2.717868847086e-03       1.647321129235e+03 
       3.421594157520e-03       1.990223380997e+03 
       4.307531833748e-03       2.380060365641e+03 
       5.422861287618e-03       2.807576785810e+03 
       6.826977879617e-03       3.261435154900e+03 
       8.594655938407e-03       3.713768538747e+03 
       1.082003076649e-02       4.124377709255e+03 
       1.362161168833e-02       4.437423195670e+03 
       1.714859310397e-02       4.583961029956e+03 
       2.158879934358e-02       4.495454994980e+03 
       2.717849456127e-02       4.137806943744e+03 
       3.419189932877e-02       3.566141092130e+03 
       4.235140458201e-02       2.984288644301e+03 
       4.904344903563e-02       2.644711597474e+03 
       5.393368028955e-02       2.465465827472e+03 
       5.799641972061e-02       2.346198850212e+03 
       6.163814686635e-02       2.252045378561e+03 
       6.504245490137e-02       2.168125992272e+03 
       6.830750604267e-02       2.086926984283e+03 
       7.149258717899e-02       2.004480856568e+03 
       7.463685493624e-02       1.918932000265e+03 
       7.776802539396e-02       1.829878970828e+03 
       8.090685101454e-02       1.737990975685e+03 
       8.406962079015e-02       1.644715161704e+03 
       8.726964754611e-02       1.552004394670e+03 
       9.051819872181e-02       1.462046227314e+03 
       9.382510345741e-02       1.376996891374e+03 
       9.719916228135e-02       1.298735285938e+03 
       1.006484314838e-01       1.228654345519e+03 
       1.041804251309e-01       1.167503385302e+03 
       1.078022612825e-01       1.115290004771e+03 
       1.115207693836e-01       1.071246539878e+03 
       1.153425699934e-01       1.033868662415e+03 
       1.192741344042e-01       1.001039267876e+03 
       1.233218293951e-01       9.702535171593e+02 
       1.274919508742e-01       9.389517411346e+02 
       1.317907491726e-01       9.049369071891e+02 
       1.362244481025e-01       8.668075245203e+02 
       1.407992594546e-01       8.242936783543e+02 
       1.455213943196e-01       7.783721772439e+02 
       1.503970724283e-01       7.310803290092e+02 
       1.554325305840e-01       6.850401031327e+02 
       1.606340311772e-01       6.428092477284e+02 
       1.660078717295e-01       6.062375793224e+02 
       1.715603963774e-01       5.759985063390e+02 
       1.772980101924e-01       5.514087476644e+02 
       1.832271972157e-01       5.305910224591e+02 
       1.893545430810e-01       5.109894728908e+02 
       1.956867630943e-01       4.901680170121e+02 
       2.022307366398e-01       4.666719376498e+02 
       2.089935488015e-01       4.405874503611e+02 
       2.159825401201e-01       4.134680477516e+02 
       2.232053654681e-01       3.875907645393e+02 
       2.306700631292e-01       3.648892175498e+02 
       2.383851353216e-01       3.460888699582e+02 
       2.463596416323e-01       3.304422824168e+02 
       2.546033071471e-01       3.161808205774e+02 
       2.631266474968e-01       3.014979620079e+02 
       2.719411136268e-01       2.855674068212e+02 
       2.810592598805e-01       2.689468455570e+02 
       2.904949400193e-01       2.530454928069e+02 
       3.002635371724e-01       2.390382943239e+02 
       3.103822355228e-01       2.270459912836e+02 
       3.208703439492e-01       2.161686597206e+02 
       3.317496850924e-01       2.053099249388e+02 
       3.430450677172e-01       1.940997480175e+02 
       3.547848662928e-01       1.830800930068e+02 
       3.670017401327e-01       1.729974407494e+02 
       3.797335363316e-01       1.639847606473e+02 
       3.930244377977e-01       1.555117411124e+02 
       4.069264425943e-01       1.470897258822e+02 
       4.215012978495e-01       1.388187263058e+02 
       4.368230677250e-01       1.310811731002e+02 
       4.529816021983e-01       1.239031006591e+02 
       4.700873122227e-01       1.169714982050e+02 
       4.882778837191e-01       1.101851452371e+02 
       5.077279452137e-01       1.037117500335e+02 
       5.286633706974e-01       9.753403496678e+01 
       5.513831077423e-01       9.149229921255e+01 
       5.762937091132e-01       8.560791795706e+01 
       6.039662997413e-01       7.986318195925e+01 
       6.352352996694e-01       7.415980547714e+01 
       6.713797400865e-01       6.846351509299e+01 
       7.144797447490e-01       6.266468425559e+01 
       7.681737323118e-01       5.663824555311e+01 
       8.393950259229e-01       5.018282186110e+01 
       9.424648037362e-01       4.302748738648e+01 
       1.106312533413e+00       3.501787507111e+01 
       1.365345249756e+00       2.696086560962e+01 
       1.716634982557e+00       2.038816308269e+01 
       2.161077366204e+00       1.535511982761e+01 
       2.720635088449e+00       1.144583857855e+01 
       3.425076649012e+00       8.387653664966e+00 
       4.311916030784e+00       6.010351100928e+00 
       5.428380664676e+00       4.194840866669e+00 
       6.833926363653e+00       2.844423857526e+00 
       8.603403561533e+00       1.872383190537e+00 
       1.083104337153e+01       1.198233261211e+00 
