# Matter power spectrum P(k) at redshift z=2.5
# for k=2.09906e-07 to 10.531 h/Mpc,
# number of wavenumbers equal to 139
#    1:k (h/Mpc)              2:P (Mpc/h)^3        
       2.099062464380e-07       1.173344401046e-01 
       2.642563077352e-07       1.470196908037e-01 
       3.326789810347e-07       1.842152180932e-01 
       4.188180231944e-07       2.308210987263e-01 
       5.272606523168e-07       2.892181228691e-01 
       6.637818338408e-07       3.623894130942e-01 
       8.356518185095e-07       4.540728125304e-01 
       1.052023309734e-06       5.689518264573e-01 
       1.324418878423e-06       7.128948712987e-01 
       1.667344581907e-06       8.932550528636e-01 
       2.099062464380e-06       1.119245785258e+00 
       2.642563077352e-06       1.402411439596e+00 
       3.326789810347e-06       1.757217059090e+00 
       4.188180231944e-06       2.201787265191e+00 
       5.272606523168e-06       2.758832083770e+00 
       6.637818338408e-06       3.456806971158e+00 
       8.356518185095e-06       4.331366260232e+00 
       1.052023309734e-05       5.427184185170e+00 
       1.324418878423e-05       6.800236364360e+00 
       1.667344581907e-05       8.520657976010e+00 
       2.099062464380e-05       1.067632400750e+01 
       2.642563077352e-05       1.337733326185e+01 
       3.326789810347e-05       1.676162275008e+01 
       4.188180231944e-05       2.100199446448e+01 
       5.272606523168e-05       2.631490397397e+01 
       6.637818338408e-05       3.297144082437e+01 
       8.356518185095e-05       4.131102440952e+01 
       1.052023309734e-04       5.175844093183e+01 
       1.324418878423e-04       6.484494643113e+01 
       1.667344581907e-04       8.123422885287e+01 
       2.099062464380e-04       1.017540014432e+02 
       2.642563077352e-04       1.274337778894e+02 
       3.326789810347e-04       1.595487580937e+02 
       4.188180231944e-04       1.996684227689e+02 
       5.272606523168e-04       2.497060232701e+02 
       6.637818338408e-04       3.119615190868e+02 
       8.356518185095e-04       3.891464594602e+02 
       1.052023309734e-03       4.843771097375e+02 
       1.324418878423e-03       6.011219003109e+02 
       1.667344581907e-03       7.430749129517e+02 
       2.099062464380e-03       9.138691256331e+02 
       2.642563077352e-03       1.116514247082e+03 
       3.326789810347e-03       1.352585335199e+03 
       4.188180231944e-03       1.621141330752e+03 
       5.272606523168e-03       1.917216747578e+03 
       6.637818338408e-03       2.230014889586e+03 
       8.356518185095e-03       2.540923383678e+03 
       1.052023309734e-02       2.821529394173e+03 
       1.324418878423e-02       3.032479977473e+03 
       1.667344581904e-02       3.125301824834e+03 
       2.099062444040e-02       3.051992742737e+03 
       2.642548348631e-02       2.789268845849e+03 
       3.324832485673e-02       2.377608707983e+03 
       4.125395385942e-02       1.961416059352e+03 
       4.793715180852e-02       1.720776474941e+03 
       5.279629868673e-02       1.598835257368e+03 
       5.681397958397e-02       1.520399023662e+03 
       6.040621706711e-02       1.459696718239e+03 
       6.375930839085e-02       1.405877034787e+03 
       6.697220535784e-02       1.353487789656e+03 
       7.010438945050e-02       1.299655021873e+03 
       7.319500581399e-02       1.243043081535e+03 
       7.627168393549e-02       1.183384298783e+03 
       7.935506298376e-02       1.121205457871e+03 
       8.246131078366e-02       1.057615354209e+03 
       8.560361845659e-02       9.941036493155e+02 
       8.879313384018e-02       9.323373296794e+02 
       9.203956925291e-02       8.739605005288e+02 
       9.535161105790e-02       8.204097506096e+02 
       9.873720361796e-02       7.727592776256e+02 
       1.022037508197e-01       7.316058908798e+02 
       1.057582618257e-01       6.969979186531e+02 
       1.094074580610e-01       6.684096794872e+02 
       1.131578526097e-01       6.447651898169e+02 
       1.170158095698e-01       6.245199409585e+02 
       1.209875886037e-01       6.058161964987e+02 
       1.250793784270e-01       5.867217159251e+02 
       1.292973219859e-01       5.655412098644e+02 
       1.336475354254e-01       5.411513939653e+02 
       1.381361225055e-01       5.132737425868e+02 
       1.427691858418e-01       4.825837040733e+02 
       1.475528361482e-01       4.505867947805e+02 
       1.524932005401e-01       4.192650994552e+02 
       1.575964308779e-01       3.905838650295e+02 
       1.628687130773e-01       3.659982405466e+02 
       1.683162782880e-01       3.460911435968e+02 
       1.739454168168e-01       3.304236238741e+02 
       1.797624956635e-01       3.176342400897e+02 
       1.857739805247e-01       3.058003176702e+02 
       1.919864631205e-01       2.930272013918e+02 
       1.984066946990e-01       2.781180458240e+02 
       2.050416265883e-01       2.610442982839e+02 
       2.118984587015e-01       2.429378632159e+02 
       2.189846969540e-01       2.255471484403e+02 
       2.263082206557e-01       2.104140842186e+02 
       2.338773610881e-01       1.981842463867e+02 
       2.417009926956e-01       1.883642461601e+02 
       2.497886386270e-01       1.796254442149e+02 
       2.581505927886e-01       1.705382524522e+02 
       2.667980611353e-01       1.603830057839e+02 
       2.757433256877e-01       1.495251397051e+02 
       2.849999357658e-01       1.390533769858e+02 
       2.945829322573e-01       1.299376636667e+02 
       3.045091124969e-01       1.223476982336e+02 
       3.147973456763e-01       1.156212924205e+02 
       3.254689518500e-01       1.088776581256e+02 
       3.365481618679e-01       1.017690217306e+02 
       3.480626814252e-01       9.469177835603e+01 
       3.600443905667e-01       8.826261839984e+01 
       3.725302214796e-01       8.264056809664e+01 
       3.855632739010e-01       7.742765722967e+01 
       3.991942515103e-01       7.220951846809e+01 
       4.134833384135e-01       6.703766523924e+01 
       4.285026890072e-01       6.223250395752e+01 
       4.443397885101e-01       5.785056122023e+01 
       4.611020748996e-01       5.364554967967e+01 
       4.789234308520e-01       4.951767531955e+01 
       4.979735208683e-01       4.561007749164e+01 
       5.184715869858e-01       4.193372731347e+01 
       5.407074710289e-01       3.835997806750e+01 
       5.650748128628e-01       3.490922425670e+01 
       5.921257049604e-01       3.159079396274e+01 
       6.226651783299e-01       2.833623924386e+01 
       6.579242407989e-01       2.514389250605e+01 
       6.998989528091e-01       2.196048040415e+01 
       7.520680318528e-01       1.874194101678e+01 
       8.210335689421e-01       1.541848949203e+01 
       9.203947585513e-01       1.192458066642e+01 
       1.077814184804e+00       8.319770421137e+00 
       1.327822115369e+00       5.129342609445e+00 
       1.669081146153e+00       2.989376592161e+00 
       2.101202116963e+00       1.720229540837e+00 
       2.645256574715e+00       9.816750015035e-01 
       3.330180722541e+00       5.560162915905e-01 
       4.192449137474e+00       3.127855069907e-01 
       5.277980756821e+00       1.748676694561e-01 
       6.644584097723e+00       9.720975965545e-02 
       8.365035771426e+00       5.375926580780e-02 
       1.053095610322e+01       2.958837717391e-02 
