# Matter power spectrum P(k) at redshift z=1.5
# for k=2.09114e-07 to 10.4912 h/Mpc,
# number of wavenumbers equal to 139
#    1:k (h/Mpc)              2:P (Mpc/h)^3        
       2.091139224469e-07       2.810886687268e-01 
       2.632588309284e-07       3.508434220320e-01 
       3.314232321349e-07       4.379084624340e-01 
       4.172371289936e-07       5.465794977603e-01 
       5.252704244341e-07       6.822182551665e-01 
       6.612762853840e-07       8.515170234765e-01 
       8.324975198868e-07       1.062828844449e+00 
       1.048052283041e-06       1.326579642937e+00 
       1.319419652009e-06       1.655782630568e+00 
       1.661050928735e-06       2.066680362534e+00 
       2.091139224469e-06       2.579546123565e+00 
       2.632588309284e-06       3.219684179503e+00 
       3.314232321349e-06       4.018678241558e+00 
       4.172371289936e-06       5.015949726601e+00 
       5.252704244341e-06       6.260702674052e+00 
       6.612762853840e-06       7.814351230886e+00 
       8.324975198868e-06       9.753549378784e+00 
       1.048052283041e-05       1.217397220168e+01 
       1.319419652009e-05       1.519503488860e+01 
       1.661050928735e-05       1.896578155183e+01 
       2.091139224469e-05       2.367223298458e+01 
       2.632588309284e-05       2.954655297970e+01 
       3.314232321349e-05       3.687847981381e+01 
       4.172371289936e-05       4.602957566867e+01 
       5.252704244341e-05       5.745097484161e+01 
       6.612762853840e-05       7.170546275780e+01 
       8.324975198868e-05       8.949488885061e+01 
       1.048052283041e-04       1.116940966917e+02 
       1.319419652009e-04       1.393927143022e+02 
       1.661050928735e-04       1.739462231309e+02 
       2.091139224469e-04       2.170375879159e+02 
       2.632588309284e-04       2.707501476592e+02 
       3.314232321349e-04       3.376510537990e+02 
       4.172371289936e-04       4.208817668939e+02 
       5.252704244341e-04       5.242475541928e+02 
       6.612762853840e-04       6.522919546086e+02 
       8.324975198868e-04       8.103369668429e+02 
       1.048052283041e-03       1.004467003942e+03 
       1.319419652009e-03       1.241421743423e+03 
       1.661050928735e-03       1.528300135386e+03 
       2.091139224469e-03       1.871894477430e+03 
       2.632588309284e-03       2.277575378433e+03 
       3.314232321349e-03       2.747708990085e+03 
       4.172371289936e-03       3.279480387102e+03 
       5.252704244341e-03       3.862002873515e+03 
       6.612762853840e-03       4.472898025063e+03 
       8.324975198868e-03       5.074661765730e+03 
       1.048052283041e-02       5.611197086516e+03 
       1.319419652009e-02       6.006172484380e+03 
       1.661050928731e-02       6.167241193384e+03 
       2.091139201838e-02       6.005107030337e+03 
       2.632572379285e-02       5.479874585416e+03 
       3.312163588632e-02       4.673822893811e+03 
       4.107387848740e-02       3.865893946093e+03 
       4.767319928917e-02       3.397887088421e+03 
       5.247914673715e-02       3.156055616418e+03 
       5.645919143324e-02       2.997437317182e+03 
       6.002078765332e-02       2.873046679290e+03 
       6.334691510579e-02       2.762282908446e+03 
       6.653497754377e-02       2.654865622167e+03 
       6.964361819105e-02       2.545442725285e+03 
       7.271147635560e-02       2.431582606403e+03 
       7.576585019614e-02       2.312855240196e+03 
       7.882714726200e-02       2.190293807415e+03 
       8.191136451078e-02       2.065980347438e+03 
       8.503156109627e-02       1.942661136447e+03 
       8.819877877962e-02       1.823365938419e+03 
       9.142264156531e-02       1.711039612338e+03 
       9.471175997753e-02       1.608207482086e+03 
       9.807401145838e-02       1.516698108601e+03 
       1.015167394309e-01       1.437440454468e+03 
       1.050468973074e-01       1.370343444871e+03 
       1.086711542173e-01       1.314262474487e+03 
       1.123959734794e-01       1.267061570061e+03 
       1.162276712710e-01       1.225789230834e+03 
       1.201724606658e-01       1.186992401142e+03 
       1.242364847370e-01       1.147178595718e+03 
       1.284258414456e-01       1.103393607149e+03 
       1.327466023911e-01       1.053814623717e+03 
       1.372048270668e-01       9.981987185525e+02 
       1.418065739804e-01       9.380134792291e+02 
       1.465579098081e-01       8.761447656811e+02 
       1.514649176316e-01       8.162120444677e+02 
       1.565337052283e-01       7.616670256498e+02 
       1.617704143367e-01       7.149271892831e+02 
       1.671812317877e-01       6.767703044338e+02 
       1.727724033756e-01       6.461289589175e+02 
       1.785502513274e-01       6.203478275334e+02 
       1.845211962213e-01       5.959131238713e+02 
       1.906917842015e-01       5.695561736194e+02 
       1.970687203391e-01       5.394200324535e+02 
       2.036589090044e-01       5.057783561670e+02 
       2.104695021459e-01       4.708641478449e+02 
       2.175079564341e-01       4.377972877383e+02 
       2.247821003243e-01       4.091245628406e+02 
       2.323002122432e-01       3.856926203084e+02 
       2.400711113211e-01       3.663626754574e+02 
       2.481042624008e-01       3.486874333518e+02 
       2.564098974734e-01       3.302715227733e+02 
       2.649991562603e-01       3.101204802447e+02 
       2.738842494154e-01       2.891038403980e+02 
       2.830786488232e-01       2.691532861819e+02 
       2.925973107921e-01       2.517834756131e+02 
       3.024569396949e-01       2.370515862095e+02 
       3.126763019440e-01       2.236913928663e+02 
       3.232766033277e-01       2.102660539614e+02 
       3.342819469873e-01       1.963685446736e+02 
       3.457198951612e-01       1.827795148547e+02 
       3.576221659496e-01       1.704697409818e+02 
       3.700255078316e-01       1.595507097925e+02 
       3.829728111259e-01       1.492922861659e+02 
       3.965145395999e-01       1.390866978722e+02 
       4.107106011273e-01       1.291126498461e+02 
       4.256328304303e-01       1.198674393408e+02 
       4.413683409048e-01       1.113505773966e+02 
       4.580241359687e-01       1.031532676642e+02 
       4.757335883102e-01       9.517485153199e+01 
       4.946657623118e-01       8.763876756146e+01 
       5.150391940311e-01       8.050943448133e+01 
       5.371428999993e-01       7.359419493819e+01 
       5.613695735292e-01       6.693757953353e+01 
       5.882702732970e-01       6.052127803438e+01 
       6.186490439061e-01       5.424195188930e+01 
       6.537363646361e-01       4.808237187809e+01 
       6.955294037235e-01       4.194608632166e+01 
       7.475129881786e-01       3.574503594997e+01 
       8.163097158066e-01       2.934789620817e+01 
       9.155738091435e-01       2.263156826370e+01 
       1.073018670672e+00       1.572289079768e+01 
       1.322701453517e+00       9.648336241351e+00 
       1.662774411119e+00       5.601520911811e+00 
       2.093265970402e+00       3.211464840155e+00 
       2.635265574886e+00       1.825861475140e+00 
       3.317602798979e+00       1.030297927307e+00 
       4.176614469874e+00       5.774179055705e-01 
       5.258046091392e+00       3.215997056572e-01 
       6.619487840838e+00       1.781037358312e-01 
       8.333441455894e+00       9.812254354261e-02 
       1.049118121652e+01       5.380021155290e-02 
