# Matter power spectrum P(k) at redshift z=0
# for k=2.05984e-07 to 10.3342 h/Mpc,
# number of wavenumbers equal to 139
#    1:k (h/Mpc)              2:P (Mpc/h)^3        
       2.059838456150e-07       1.303376271747e+00 
       2.593182976638e-07       1.625810073103e+00 
       3.264623946721e-07       2.028008680241e+00 
       4.109918046479e-07       2.529704590147e+00 
       5.174080269104e-07       3.155511793240e+00 
       6.513781133438e-07       3.936133373174e+00 
       8.200364595750e-07       4.909867846602e+00 
       1.032364737557e-06       6.124488143798e+00 
       1.299670202350e-06       7.639585414548e+00 
       1.636187844691e-06       9.529492647107e+00 
       2.059838456150e-06       1.188693152350e+01 
       2.593182976638e-06       1.482756142187e+01 
       3.264623946721e-06       1.849565370568e+01 
       4.109918046479e-06       2.307116962703e+01 
       5.174080269104e-06       2.877858895543e+01 
       6.513781133438e-06       3.589792221979e+01 
       8.200364595750e-06       4.477844631157e+01 
       1.032364737557e-05       5.585583629322e+01 
       1.299670202350e-05       6.967353188058e+01 
       1.636187844691e-05       8.690938279349e+01 
       2.059838456150e-05       1.084088722086e+02 
       2.593182976638e-05       1.352265324400e+02 
       3.264623946721e-05       1.686775534186e+02 
       4.109918046479e-05       2.104020541449e+02 
       5.174080269104e-05       2.624450485066e+02 
       6.513781133438e-05       3.273557890444e+02 
       8.200364595750e-05       4.083108925391e+02 
       1.032364737557e-04       5.092663705298e+02 
       1.299670202350e-04       6.351442455491e+02 
       1.636187844691e-04       7.920595036320e+02 
       2.059838456150e-04       9.875921167247e+02 
       2.593182976638e-04       1.231105795817e+03 
       3.264623946721e-04       1.534108742752e+03 
       4.109918046479e-04       1.910641015241e+03 
       5.174080269104e-04       2.377658987891e+03 
       6.513781133438e-04       2.955372102489e+03 
       8.200364595750e-04       3.667462391943e+03 
       1.032364737557e-03       4.541034516074e+03 
       1.299670202350e-03       5.605961481595e+03 
       1.636187844691e-03       6.893218110955e+03 
       2.059838456150e-03       8.431884430275e+03 
       2.593182976638e-03       1.024419361843e+04 
       3.264623946721e-03       1.233828387648e+04 
       4.109918046479e-03       1.469857059910e+04 
       5.174080269104e-03       1.727336483117e+04 
       6.513781133438e-03       1.996085122635e+04 
       8.200364595750e-03       2.259509162912e+04 
       1.032364737557e-02       2.493431504682e+04 
       1.299670202350e-02       2.665842139881e+04 
       1.636187844684e-02       2.739150072348e+04 
       2.059838423132e-02       2.678266682759e+04 
       2.593161966651e-02       2.468800767810e+04 
       3.262110746653e-02       2.144317018268e+04 
       4.036704127309e-02       1.815838288636e+04 
       4.666327181594e-02       1.619192715386e+04 
       5.127719278931e-02       1.508931062773e+04 
       5.511971920165e-02       1.431276514559e+04 
       5.856850632319e-02       1.367540387767e+04 
       6.179489271158e-02       1.309854116639e+04 
       6.489080073895e-02       1.254376223810e+04 
       6.791188432927e-02       1.199195968850e+04 
       7.089496853975e-02       1.143522825109e+04 
       7.386615738475e-02       1.087299748834e+04 
       7.684502005080e-02       1.030971286313e+04 
       7.984693262737e-02       9.753096940067e+03 
       8.288447303205e-02       9.212630867040e+03 
       8.596829492412e-02       8.698152390594e+03 
       8.910769820697e-02       8.218576524399e+03 
       9.231101430972e-02       7.780793786769e+03 
       9.558587378205e-02       7.388805841913e+03 
       9.893939648329e-02       7.043152103680e+03 
       1.023783292954e-01       6.740668485616e+03 
       1.059091472984e-01       6.474623949248e+03 
       1.095381289000e-01       6.235285639740e+03 
       1.132714120233e-01       6.010962422830e+03 
       1.171150362864e-01       5.789524824313e+03 
       1.210749747101e-01       5.560285648025e+03 
       1.251571575585e-01       5.315950698316e+03 
       1.293674903029e-01       5.054182782148e+03 
       1.337118672929e-01       4.778266942121e+03 
       1.381961824421e-01       4.496507988010e+03 
       1.428263380594e-01       4.220336943035e+03 
       1.476082528417e-01       3.961527383104e+03 
       1.525478699665e-01       3.729239121109e+03 
       1.576511661821e-01       3.527673655088e+03 
       1.629241627594e-01       3.354961505101e+03 
       1.683729391542e-01       3.203633885095e+03 
       1.740036502144e-01       3.062731649459e+03 
       1.798225477618e-01       2.921197636295e+03 
       1.858360073693e-01       2.771614546941e+03 
       1.920505611631e-01       2.612835176148e+03 
       1.984729374914e-01       2.450148995112e+03 
       2.051101083338e-01       2.292648930379e+03 
       2.119693453871e-01       2.148935396958e+03 
       2.190582858598e-01       2.023219517083e+03 
       2.263850091562e-01       1.913671564444e+03 
       2.339581258486e-01       1.813771942308e+03 
       2.417868806390e-01       1.716024400093e+03 
       2.498812714291e-01       1.616089974798e+03 
       2.582521871785e-01       1.514855586419e+03 
       2.669115679765e-01       1.417039697109e+03 
       2.758725917430e-01       1.327366761273e+03 
       2.851498932799e-01       1.247166804047e+03 
       2.947598231281e-01       1.173844370700e+03 
       3.047207559913e-01       1.103396675757e+03 
       3.150534615908e-01       1.033746821114e+03 
       3.257815550284e-01       9.659625228195e+02 
       3.369320495155e-01       9.024195262035e+02 
       3.485360423855e-01       8.440285253896e+02 
       3.606295766850e-01       7.894741072550e+02 
       3.732547369768e-01       7.370022365312e+02 
       3.864610618430e-01       6.863427328778e+02 
       4.003073910792e-01       6.384006255473e+02 
       4.148643194670e-01       5.935019711637e+02 
       4.302175127223e-01       5.508986864107e+02 
       4.464722744312e-01       5.100015501965e+02 
       4.637599707001e-01       4.709998189543e+02 
       4.822472867489e-01       4.339633871659e+02 
       5.021499310910e-01       3.984690296446e+02 
       5.237535665965e-01       3.643159788175e+02 
       5.474469535453e-01       3.314549353019e+02 
       5.737766849818e-01       2.995933910095e+02 
       6.035421630884e-01       2.685071678704e+02 
       6.379702960886e-01       2.379096567559e+02 
       6.790595653337e-01       2.074227380489e+02 
       7.303122525212e-01       1.765527615368e+02 
       7.984164243198e-01       1.446516456907e+02 
       8.972057572851e-01       1.111150812928e+02 
       1.054513882701e+00       7.672025478439e+01 
       1.302575559315e+00       4.686730267560e+01 
       1.637888059488e+00       2.719759239318e+01 
       2.061946753690e+00       1.559352686382e+01 
       2.595837065009e+00       8.865280835457e+00 
       3.267965245973e+00       5.001955018618e+00 
       4.114124493016e+00       2.802805837758e+00 
       5.179375871543e+00       1.560709835857e+00 
       6.520447901918e+00       8.641012171389e-01 
       8.208757560005e+00       4.759152633465e-01 
       1.033421349155e+01       2.608559876077e-01 
