# Matter power spectrum P(k) at redshift z=1.5
# for k=2.00715e-07 to 10.0702 h/Mpc,
# number of wavenumbers equal to 139
#    1:k (h/Mpc)              2:P (Mpc/h)^3        
       2.007149005721e-07       4.011838487506e-01 
       2.526850888559e-07       5.004301187254e-01 
       3.181116795422e-07       6.242282794312e-01 
       4.004788771642e-07       7.786520636679e-01 
       5.041730353488e-07       9.712777451477e-01 
       6.347162461420e-07       1.211555842330e+00 
       7.990604115468e-07       1.511274775010e+00 
       1.005957457655e-06       1.885139221431e+00 
       1.266425406626e-06       2.351491550472e+00 
       1.594335126543e-06       2.933211722015e+00 
       2.007149005721e-06       3.658839804058e+00 
       2.526850888559e-06       4.563976172227e+00 
       3.181116795422e-06       5.693028082552e+00 
       4.004788771642e-06       7.101388280661e+00 
       5.041730353488e-06       8.858152503584e+00 
       6.347162461420e-06       1.104950911725e+01 
       7.990604115468e-06       1.378296704965e+01 
       1.005957457655e-05       1.719262913905e+01 
       1.266425406626e-05       2.144576907280e+01 
       1.594335126543e-05       2.675103338826e+01 
       2.007149005721e-05       3.336866874700e+01 
       2.526850888559e-05       4.162327170155e+01 
       3.181116795422e-05       5.191967770346e+01 
       4.004788771642e-05       6.476275139697e+01 
       5.041730353488e-05       8.078201475859e+01 
       6.347162461420e-05       1.007622533812e+02 
       7.990604115468e-05       1.256814691009e+02 
       1.005957457655e-04       1.567577786261e+02 
       1.266425406626e-04       1.955070469386e+02 
       1.594335126543e-04       2.438130886518e+02 
       2.007149005721e-04       3.040119726258e+02 
       2.526850888559e-04       3.789909642166e+02 
       3.181116795422e-04       4.723003495885e+02 
       4.004788771642e-04       5.882720311552e+02 
       5.041730353488e-04       7.321317929281e+02 
       6.347162461420e-04       9.100833297371e+02 
       7.990604115468e-04       1.129335189245e+03 
       1.005957457655e-03       1.398039409956e+03 
       1.266425406626e-03       1.725092283767e+03 
       1.594335126543e-03       2.119652329180e+03 
       2.007149005721e-03       2.590114107282e+03 
       2.526850888559e-03       3.142456043593e+03 
       3.181116795422e-03       3.777975750419e+03 
       4.004788771642e-03       4.490287279317e+03 
       5.041730353488e-03       5.261425861952e+03 
       6.347162461420e-03       6.057463582714e+03 
       7.990604115468e-03       6.824081207035e+03 
       1.005957457655e-02       7.482626870174e+03 
       1.266425406626e-02       7.928890438077e+03 
       1.594335126541e-02       8.040087066113e+03 
       2.007148994122e-02       7.702343232860e+03 
       2.526841304694e-02       6.875449814034e+03 
       3.179698714569e-02       5.691321407760e+03 
       3.954690743535e-02       4.539988303456e+03 
       4.620164273665e-02       3.889138202296e+03 
       5.100778903587e-02       3.579133678298e+03 
       5.495166648600e-02       3.389758400599e+03 
       5.846383035328e-02       3.247944232464e+03 
       6.173457804198e-02       3.123944614256e+03 
       6.486394970905e-02       3.003132397022e+03 
       6.791163961187e-02       2.877929227011e+03 
       7.091671597184e-02       2.744901141165e+03 
       7.390663327412e-02       2.603464643974e+03 
       7.690182584215e-02       2.455136514767e+03 
       7.991825193434e-02       2.302949038126e+03 
       8.296889727069e-02       2.150896390828e+03 
       8.606471097230e-02       2.003381181787e+03 
       8.921521335326e-02       1.864680100510e+03 
       9.242890460659e-02       1.738467437015e+03 
       9.571354763847e-02       1.627433759040e+03 
       9.907636850012e-02       1.533021296108e+03 
       1.025242011786e-01       1.455278031082e+03 
       1.060635937822e-01       1.392821605269e+03 
       1.097008872909e-01       1.342910848846e+03 
       1.134422744054e-01       1.301644451055e+03 
       1.172938437096e-01       1.264330324944e+03 
       1.212616128662e-01       1.226065119724e+03 
       1.253515535735e-01       1.182509970166e+03 
       1.295696103608e-01       1.130746568004e+03 
       1.339217148609e-01       1.069987631178e+03 
       1.384137969077e-01       1.001871420151e+03 
       1.430517936196e-01       9.301494463579e+02 
       1.478416574994e-01       8.597804631420e+02 
       1.527893645095e-01       7.956759087882e+02 
       1.579009230255e-01       7.414719761862e+02 
       1.631823845431e-01       6.986569430050e+02 
       1.686398569955e-01       6.662270470605e+02 
       1.742795215207e-01       6.409227969508e+02 
       1.801076535141e-01       6.180682958540e+02 
       1.861306487943e-01       5.929696300246e+02 
       1.923550557151e-01       5.625591388222e+02 
       1.987876140654e-01       5.266059321754e+02 
       2.054353016336e-01       4.877626403041e+02 
       2.123053893666e-01       4.502648497129e+02 
       2.194055061437e-01       4.179183820452e+02 
       2.267437143323e-01       3.924085634948e+02 
       2.343285974951e-01       3.726857076311e+02 
       2.421693619128e-01       3.556371804550e+02 
       2.502759539884e-01       3.377928686322e+02 
       2.586591961399e-01       3.172851992199e+02 
       2.673309445110e-01       2.948431425526e+02 
       2.763042727877e-01       2.730177014298e+02 
       2.855936876701e-01       2.541901255518e+02 
       2.952153832289e-01       2.388989117862e+02 
       3.051875436015e-01       2.256749074595e+02 
       3.155307064820e-01       2.124188455418e+02 
       3.262682039112e-01       1.981981374041e+02 
       3.374267024429e-01       1.838566729799e+02 
       3.490368724932e-01       1.708644586541e+02 
       3.611342275836e-01       1.596941564936e+02 
       3.737601898047e-01       1.494801562054e+02 
       3.869634605748e-01       1.392166557011e+02 
       4.008018095251e-01       1.289476736610e+02 
       4.153444454491e-01       1.194176307539e+02 
       4.306752123634e-01       1.108258424278e+02 
       4.468969791765e-01       1.026276333877e+02 
       4.641377958559e-01       9.454760642722e+01 
       4.825597321498e-01       8.690389756978e+01 
       5.023719108596e-01       7.976671417594e+01 
       5.238503226926e-01       7.284360599772e+01 
       5.473690344574e-01       6.616091848407e+01 
       5.734514072820e-01       5.976925366525e+01 
       6.028583170257e-01       5.351568725460e+01 
       6.367490194319e-01       4.740505305409e+01 
       6.769947844843e-01       4.133681453288e+01 
       7.268389686211e-01       3.523233374775e+01 
       7.923988744260e-01       2.896460914648e+01 
       8.862180870593e-01       2.241376606672e+01 
       1.034042103148e+00       1.567087490046e+01 
       1.270254166394e+00       9.650986880243e+00 
       1.596062883720e+00       5.584597072995e+00 
       2.009261251818e+00       3.188786380731e+00 
       2.529509795709e+00       1.806192176495e+00 
       3.184464161054e+00       1.015699361139e+00 
       4.009002855298e+00       5.674319809121e-01 
       5.047035570491e+00       3.151089364471e-01 
       6.353841333920e+00       1.740314720503e-01 
       7.999012317780e+00       9.563350810102e-02 
       1.007015987611e+01       5.230928248591e-02 
