# Matter power spectrum P(k) at redshift z=2.5
# for k=2.08078e-07 to 10.4392 h/Mpc,
# number of wavenumbers equal to 139
#    1:k (h/Mpc)              2:P (Mpc/h)^3        
       2.080777232810e-07       1.142781283631e-01 
       2.619543334667e-07       1.433484887003e-01 
       3.297809671308e-07       1.798138410570e-01 
       4.151696398471e-07       2.255553421133e-01 
       5.226676098089e-07       2.829326821563e-01 
       6.579995359101e-07       3.549058150459e-01 
       8.283723367060e-07       4.451876550671e-01 
       1.042858985107e-06       5.584356165061e-01 
       1.312881677268e-06       7.004918771205e-01 
       1.652820106192e-06       8.786847612338e-01 
       2.080777232810e-06       1.102206785742e+00 
       2.619543334667e-06       1.382588874860e+00 
       3.297809671308e-06       1.734295200745e+00 
       4.151696398471e-06       2.175469334603e+00 
       5.226676098089e-06       2.728870185239e+00 
       6.579995359101e-06       3.423045994685e+00 
       8.283723367060e-06       4.293806904158e+00 
       1.042858985107e-05       5.386071991836e+00 
       1.312881677268e-05       6.756185883738e+00 
       1.652820106192e-05       8.474824152607e+00 
       2.080777232810e-05       1.063063675005e+01 
       2.619543334667e-05       1.333481615878e+01 
       3.297809671308e-05       1.672682346775e+01 
       4.151696398471e-05       2.098156279633e+01 
       5.226676098089e-05       2.631836440661e+01 
       6.579995359101e-05       3.301222038625e+01 
       8.283723367060e-05       4.140781409751e+01 
       1.042858985107e-04       5.193699076277e+01 
       1.312881677268e-04       6.514042027618e+01 
       1.652820106192e-04       8.169427493371e+01 
       2.080777232810e-04       1.024427246922e+02 
       2.619543334667e-04       1.284368239632e+02 
       3.297809671308e-04       1.609797201972e+02 
       4.151696398471e-04       2.016767324017e+02 
       5.226676098089e-04       2.524863402726e+02 
       6.579995359101e-04       3.157643420867e+02 
       8.283723367060e-04       3.942892191111e+02 
       1.042858985107e-03       4.912544729773e+02 
       1.312881677268e-03       6.102135239277e+02 
       1.652820106192e-03       7.549479705262e+02 
       2.080777232810e-03       9.291703615377e+02 
       2.619543334667e-03       1.135944509133e+03 
       3.297809671308e-03       1.376853095327e+03 
       4.151696398471e-03       1.650885954133e+03 
       5.226676098089e-03       1.951921978597e+03 
       6.579995359101e-03       2.270473102936e+03 
       8.283723367060e-03       2.586965420099e+03 
       1.042858985107e-02       2.872831343355e+03 
       1.312881677268e-02       3.088944076275e+03 
       1.652820106187e-02       3.187722279900e+03 
       2.080777206924e-02       3.122775360598e+03 
       2.619525753378e-02       2.872365458740e+03 
       3.295591995845e-02       2.476310869322e+03 
       4.083860752832e-02       2.074568139706e+03 
       4.733179322136e-02       1.839386148514e+03 
       5.207053657780e-02       1.714778504501e+03 
       5.600279369641e-02       1.631098161009e+03 
       5.952536235691e-02       1.564305736395e+03 
       6.281708012752e-02       1.504258501517e+03 
       6.597341020131e-02       1.445921946175e+03 
       6.905194176082e-02       1.386716322026e+03 
       7.209067651092e-02       1.325516238832e+03 
       7.511649412558e-02       1.262185090015e+03 
       7.814950909189e-02       1.197298501628e+03 
       8.120550183323e-02       1.131931014148e+03 
       8.429736402550e-02       1.067460754930e+03 
       8.743600263269e-02       1.005378677024e+03 
       9.063092929838e-02       9.471070882956e+02 
       9.389065795192e-02       8.938364250607e+02 
       9.722298071569e-02       8.463914429977e+02 
       1.006351638586e-01       8.051350338573e+02 
       1.041340896005e-01       7.699139534947e+02 
       1.077263602466e-01       7.400504240363e+02 
       1.114183754912e-01       7.143860774206e+02 
       1.152163902192e-01       6.913867827252e+02 
       1.191265578944e-01       6.693184088465e+02 
       1.231549631747e-01       6.464917992359e+02 
       1.273076464345e-01       6.215527663592e+02 
       1.315906222402e-01       5.937604598685e+02 
       1.360098934013e-01       5.631749987547e+02 
       1.405714619395e-01       5.306767986398e+02 
       1.452813381303e-01       4.977807035734e+02 
       1.501455486556e-01       4.662738362140e+02 
       1.551701448264e-01       4.377707221029e+02 
       1.603612117882e-01       4.133069385887e+02 
       1.657248795937e-01       3.930761289021e+02 
       1.712673370034e-01       3.763748239905e+02 
       1.769948488689e-01       3.617827682548e+02 
       1.829137779393e-01       3.475709576351e+02 
       1.890306119304e-01       3.322615197692e+02 
       1.953519966997e-01       3.151602488986e+02 
       2.018847763826e-01       2.966154570687e+02 
       2.086360413802e-01       2.778327574960e+02 
       2.156131851475e-01       2.602990122865e+02 
       2.228239708297e-01       2.450931069024e+02 
       2.302766089423e-01       2.324175860533e+02 
       2.379798475105e-01       2.215624970220e+02 
       2.459430763875e-01       2.113184683913e+02 
       2.541764478931e-01       2.006530191979e+02 
       2.626910164770e-01       1.892809428230e+02 
       2.714989008660e-01       1.777493555700e+02 
       2.806134731519e-01       1.669622796006e+02 
       2.900495805912e-01       1.574993944366e+02 
       2.998238076394e-01       1.492366522716e+02 
       3.099547880645e-01       1.415290775739e+02 
       3.204635801145e-01       1.337858206915e+02 
       3.313741219509e-01       1.259423359664e+02 
       3.427137903902e-01       1.184026139193e+02 
       3.545140940958e-01       1.115408435877e+02 
       3.668115438139e-01       1.053100998396e+02 
       3.796487586680e-01       9.936283725370e+01 
       3.930758914905e-01       9.349163284712e+01 
       4.071524918116e-01       8.782216474089e+01 
       4.219499791946e-01       8.253812180959e+01 
       4.375549835092e-01       7.758511972796e+01 
       4.540739421400e-01       7.279383145179e+01 
       4.716395621322e-01       6.815453750403e+01 
       4.904201225128e-01       6.374634400522e+01 
       5.106332321578e-01       5.952415086433e+01 
       5.325668182333e-01       5.541680360369e+01 
       5.566123148667e-01       5.143999416676e+01 
       5.833193864924e-01       4.756320639974e+01 
       6.134907051470e-01       4.374016031509e+01 
       6.483558954897e-01       3.994231759409e+01 
       6.899132401214e-01       3.610732439689e+01 
       7.416548356128e-01       3.216046126876e+01 
       8.102284380644e-01       2.798942588772e+01 
       9.093560895920e-01       2.345433467724e+01 
       1.066807303161e+00       1.852556410523e+01 
       1.316020464488e+00       1.378360030227e+01 
       1.654531347286e+00       1.014192776764e+01 
       2.082892723041e+00       7.529088753877e+00 
       2.622206449112e+00       5.609124998240e+00 
       3.301162333698e+00       4.162143771219e+00 
       4.155917150350e+00       3.054205629304e+00 
       5.231989709887e+00       2.202525001226e+00 
       6.586684800023e+00       1.553191981640e+00 
       8.292144874227e+00       1.067315232830e+00 
       1.043919190044e+01       7.132482380856e-01 
