# Matter power spectrum P(k) at redshift z=1
# for k=1.95597e-07 to 12.3545 h/Mpc,
# number of wavenumbers equal to 140
#    1:k (h/Mpc)              2:P (Mpc/h)^3        
       1.955965884240e-07       5.617459443990e-01 
       2.462415156273e-07       7.007126297114e-01 
       3.099997014619e-07       8.740573815078e-01 
       3.902665018190e-07       1.090284766298e+00 
       4.913164165119e-07       1.360003239602e+00 
       6.185307219785e-07       1.696445613026e+00 
       7.786840438741e-07       2.116118275928e+00 
       9.803051305917e-07       2.639611022788e+00 
       1.234131040214e-06       3.292607216732e+00 
       1.553678928010e-06       4.107143848447e+00 
       1.955965884240e-06       5.123183305041e+00 
       2.462415156273e-06       6.390573955539e+00 
       3.099997014619e-06       7.971495729697e+00 
       3.902665018190e-06       9.943510639751e+00 
       4.913164165119e-06       1.240336785079e+01 
       6.185307219785e-06       1.547174986595e+01 
       7.786840438741e-06       1.929919244947e+01 
       9.803051305917e-06       2.407346826702e+01 
       1.234131040214e-05       3.002879558767e+01 
       1.553678928010e-05       3.745732204613e+01 
       1.955965884240e-05       4.672344333809e+01 
       2.462415156273e-05       5.828165231079e+01 
       3.099997014619e-05       7.269878033935e+01 
       3.902665018190e-05       9.068169482292e+01 
       4.913164165119e-05       1.131117577382e+02 
       6.185307219785e-05       1.410876297022e+02 
       7.786840438741e-05       1.759783105216e+02 
       9.803051305917e-05       2.194886093429e+02 
       1.234131040214e-04       2.737394583375e+02 
       1.553678928010e-04       3.413654672352e+02 
       1.955965884240e-04       4.256315597189e+02 
       2.462415156273e-04       5.305689092113e+02 
       3.099997014619e-04       6.611268909165e+02 
       3.902665018190e-04       8.233314537871e+02 
       4.913164165119e-04       1.024430888009e+03 
       6.185307219785e-04       1.272999427667e+03 
       7.786840438741e-04       1.578962142062e+03 
       9.803051305918e-04       1.953496800027e+03 
       1.234131040214e-03       2.408714043690e+03 
       1.553678928010e-03       2.956867078318e+03 
       1.955965884240e-03       3.608814944593e+03 
       2.462415156273e-03       4.371710112672e+03 
       3.099997014619e-03       5.245743559281e+03 
       3.902665018190e-03       6.220007896437e+03 
       4.913164165119e-03       7.267233034580e+03 
       6.185307219785e-03       8.338111992730e+03 
       7.786840438741e-03       9.355860364063e+03 
       9.803051305918e-03       1.021181067275e+04 
       1.234131040214e-02       1.076500400009e+04 
       1.553678928008e-02       1.085305704013e+04 
       1.955965874702e-02       1.033041906166e+04 
       2.462406927126e-02       9.155411112685e+03 
       3.098735819647e-02       7.518831726966e+03 
       3.856696239352e-02       5.948035101422e+03 
       4.513657596126e-02       5.064178286121e+03 
       4.987245806906e-02       4.648826589254e+03 
       5.374888349648e-02       4.397031406896e+03 
       5.719638409398e-02       4.208717776630e+03 
       6.040444628091e-02       4.043734222732e+03 
       6.347234682493e-02       3.882617920757e+03 
       6.645918129152e-02       3.715480624798e+03 
       6.940355597733e-02       3.538023384828e+03 
       7.233256188374e-02       3.349754086232e+03 
       7.526633898340e-02       3.152944754163e+03 
       7.822059991587e-02       2.951817058225e+03 
       8.120811950976e-02       2.751778815250e+03 
       8.423966102584e-02       2.558673801181e+03 
       8.732457713162e-02       2.378072476363e+03 
       9.047121371433e-02       2.214655113606e+03 
       9.368718917759e-02       2.071733237407e+03 
       9.697959227083e-02       1.950932037844e+03 
       1.003551249447e-01       1.852030475277e+03 
       1.038202070859e-01       1.772944142437e+03 
       1.073810541761e-01       1.709846008597e+03 
       1.110437353162e-01       1.657455041602e+03 
       1.148142167688e-01       1.609550212751e+03 
       1.186983946857e-01       1.559758357865e+03 
       1.227021197138e-01       1.502584980026e+03 
       1.268312155242e-01       1.434518993406e+03 
       1.310914928778e-01       1.354903764067e+03 
       1.354887605538e-01       1.266226086214e+03 
       1.400288342806e-01       1.173602730464e+03 
       1.447175446817e-01       1.083523443143e+03 
       1.495607451770e-01       1.002204003498e+03 
       1.545643207240e-01       9.340420360613e+02 
       1.597341982594e-01       8.805787744616e+02 
       1.650763596765e-01       8.401580618762e+02 
       1.705968581662e-01       8.083300610056e+02 
       1.763018387358e-01       7.790179566575e+02 
       1.821975637192e-01       7.463635309031e+02 
       1.882904440926e-01       7.067994956103e+02 
       1.945870774221e-01       6.604508053015e+02 
       2.010942932983e-01       6.109864814141e+02 
       2.078192071691e-01       5.638129966585e+02 
       2.147692835678e-01       5.235159141068e+02 
       2.219524098746e-01       4.918542332021e+02 
       2.293769819488e-01       4.671770990104e+02 
       2.370520032546e-01       4.454420469525e+02 
       2.449871994918e-01       4.224368761738e+02 
       2.531931512750e-01       3.961507752024e+02 
       2.616814481015e-01       3.677820678365e+02 
       2.704648677851e-01       3.405547665955e+02 
       2.795575867610e-01       3.172206049853e+02 
       2.889754282996e-01       2.981642274404e+02 
       2.987361578362e-01       2.814307376724e+02 
       3.088598375388e-01       2.645357933371e+02 
       3.193692561810e-01       2.465648005797e+02 
       3.302904558005e-01       2.286752222289e+02 
       3.416533841426e-01       2.125661021197e+02 
       3.534927124831e-01       1.986279596759e+02 
       3.658488735963e-01       1.857507583677e+02 
       3.787693967259e-01       1.728310174560e+02 
       3.923106491834e-01       1.600319472567e+02 
       4.065401437840e-01       1.482025220721e+02 
       4.215396480450e-01       1.374741634153e+02 
       4.374094526559e-01       1.272027640725e+02 
       4.542743546927e-01       1.171389888213e+02 
       4.722922431883e-01       1.076474439062e+02 
       4.916667509908e-01       9.875309896598e+01 
       5.126664755402e-01       9.013626868691e+01 
       5.356552254581e-01       8.184396707921e+01 
       5.611416108522e-01       7.390282555101e+01 
       5.898643589583e-01       6.614774989686e+01 
       6.229476661503e-01       5.857460336965e+01 
       6.622035919649e-01       5.106364900928e+01 
       7.107673301007e-01       4.351657579051e+01 
       7.745403195510e-01       3.578015275901e+01 
       8.656049269959e-01       2.770616295179e+01 
       1.008822334875e+00       1.939759424418e+01 
       1.238076616782e+00       1.195447134523e+01 
       1.555396056084e+00       6.909185453010e+00 
       1.958059220871e+00       3.939518856847e+00 
       2.465050224421e+00       2.228533527697e+00 
       3.103314368699e+00       1.251726253677e+00 
       3.906841319541e+00       6.985419913425e-01 
       4.918421817018e+00       3.875380582724e-01 
       6.191926211367e+00       2.138412003660e-01 
       7.795173255444e+00       1.174125807760e-01 
       9.813541700616e+00       6.417281383142e-02 
       1.235451702661e+01       3.492569859037e-02 
