# Matter power spectrum P(k) at redshift z=2
# for k=2.38599e-07 to 11.9715 h/Mpc,
# number of wavenumbers equal to 139
#    1:k (h/Mpc)              2:P (Mpc/h)^3        
       2.385988813311e-07       1.015880395636e-01 
       3.003781949334e-07       1.271488917665e-01 
       3.781537427505e-07       1.591411817811e-01 
       4.760673563137e-07       1.991831417814e-01 
       5.993332925889e-07       2.493001717507e-01 
       7.545159121745e-07       3.120272881630e-01 
       9.498792554395e-07       3.905373499427e-01 
       1.195827132809e-06       4.888015476554e-01 
       1.505457165606e-06       6.117902734704e-01 
       1.895258282149e-06       7.657245325273e-01 
       2.385988813311e-06       9.583906119907e-01 
       3.003781949334e-06       1.199533922679e+00 
       3.781537427505e-06       1.501351934378e+00 
       4.760673563137e-06       1.879111135138e+00 
       5.993332925889e-06       2.351919212745e+00 
       7.545159121745e-06       2.943691507238e+00 
       9.498792554395e-06       3.684360593100e+00 
       1.195827132809e-05       4.611390122723e+00 
       1.505457165606e-05       5.771669405547e+00 
       1.895258282149e-05       7.223884360163e+00 
       2.385988813311e-05       9.041484370218e+00 
       3.003781949334e-05       1.131639434400e+01 
       3.781537427505e-05       1.416365819737e+01 
       4.760673563137e-05       1.772724559733e+01 
       5.993332925890e-05       2.218730963265e+01 
       7.545159121745e-05       2.776925060959e+01 
       9.498792554395e-05       3.475502074633e+01 
       1.195827132809e-04       4.349719508116e+01 
       1.505457165606e-04       5.443642860090e+01 
       1.895258282149e-04       6.812300334241e+01 
       2.385988813311e-04       8.524320724156e+01 
       3.003781949334e-04       1.066512118374e+02 
       3.781537427505e-04       1.334068082494e+02 
       4.760673563137e-04       1.668186317706e+02 
       5.993332925890e-04       2.084911279469e+02 
       7.545159121745e-04       2.603713831887e+02 
       9.498792554395e-04       3.247894420162e+02 
       1.195827132809e-03       4.044837757824e+02 
       1.505457165606e-03       5.026008816081e+02 
       1.895258282149e-03       6.226435225454e+02 
       2.385988813311e-03       7.683039238235e+02 
       3.003781949334e-03       9.431079715963e+02 
       3.781537427505e-03       1.149855412500e+03 
       4.760673563137e-03       1.389775405214e+03 
       5.993332925890e-03       1.659173957798e+03 
       7.545159121745e-03       1.955178004157e+03 
       9.498792554395e-03       2.263658441981e+03 
       1.195827132809e-02       2.562972852610e+03 
       1.505457165606e-02       2.820586514025e+03 
       1.895258282126e-02       2.993267777999e+03 
       2.385988726167e-02       3.033631958248e+03 
       3.003737139243e-02       2.909383325708e+03 
       3.777031741565e-02       2.637702189370e+03 
       4.649181495137e-02       2.332414451288e+03 
       5.329884633544e-02       2.142821175334e+03 
       5.836282993420e-02       2.029790289221e+03 
       6.262869184185e-02       1.947526198804e+03 
       6.648086109983e-02       1.878886222446e+03 
       7.009760323986e-02       1.816084697845e+03 
       7.357613240582e-02       1.755034916358e+03 
       7.697600216934e-02       1.693518275849e+03 
       8.033697070792e-02       1.630463810437e+03 
       8.368742244941e-02       1.565607578724e+03 
       8.704876210870e-02       1.499290442182e+03 
       9.043789273666e-02       1.432302741497e+03 
       9.386870142451e-02       1.365739185690e+03 
       9.735299498444e-02       1.300850752707e+03 
       1.009011134122e-01       1.238894471811e+03 
       1.045223456598e-01       1.180987960614e+03 
       1.082252192584e-01       1.127977972551e+03 
       1.120177066568e-01       1.080333665925e+03 
       1.159073749136e-01       1.038073554781e+03 
       1.199014958315e-01       1.000735557538e+03 
       1.240071278234e-01       9.673989501755e+02 
       1.282311771737e-01       9.367677159545e+02 
       1.325804440404e-01       9.073219839590e+02 
       1.370616570364e-01       8.775337600140e+02 
       1.416814992332e-01       8.461257888751e+02 
       1.464466277673e-01       8.123277998469e+02 
       1.513636887904e-01       7.760649673078e+02 
       1.564393292124e-01       7.380116055852e+02 
       1.616802064923e-01       6.994677842298e+02 
       1.670929976101e-01       6.620672328820e+02 
       1.726844082740e-01       6.273798259057e+02 
       1.784611833651e-01       5.965109153341e+02 
       1.844301195965e-01       5.698044542137e+02 
       1.905980813385e-01       5.467347097078e+02 
       1.969720205514e-01       5.260348583528e+02 
       2.035590017589e-01       5.060636080553e+02 
       2.103662329904e-01       4.853383203491e+02 
       2.174011036261e-01       4.630678640865e+02 
       2.246712300986e-01       4.394549078209e+02 
       2.321845104424e-01       4.155892594899e+02 
       2.399491887566e-01       3.929400936130e+02 
       2.479739307620e-01       3.726736922344e+02 
       2.562679118074e-01       3.551247110335e+02 
       2.648409189377e-01       3.396767634081e+02 
       2.737034689891e-01       3.251223009893e+02 
       2.828669451667e-01       3.103418010774e+02 
       2.923437552120e-01       2.949333033140e+02 
       3.021475151381e-01       2.793825074086e+02 
       3.122932636642e-01       2.646350423533e+02 
       3.227977140021e-01       2.513762448720e+02 
       3.336795516667e-01       2.395554102788e+02 
       3.449597896773e-01       2.285026810956e+02 
       3.566621961377e-01       2.175292894352e+02 
       3.688138141096e-01       2.064942400788e+02 
       3.814456004700e-01       1.958186173645e+02 
       3.945932198920e-01       1.859559684915e+02 
       4.082980434681e-01       1.768988458562e+02 
       4.226084207299e-01       1.682501956321e+02 
       4.375813219750e-01       1.597306606027e+02 
       4.532844897994e-01       1.514631803619e+02 
       4.697993026507e-01       1.436820261871e+02 
       4.872246527469e-01       1.363404351235e+02 
       5.056822995962e-01       1.292184957284e+02 
       5.253244211408e-01       1.222846845581e+02 
       5.463445260396e-01       1.156422623523e+02 
       5.689936644574e-01       1.092365668013e+02 
       5.936052854811e-01       1.029618573521e+02 
       6.206347782583e-01       9.683212455697e+01 
       6.507251255764e-01       9.079961558509e+01 
       6.848215491365e-01       8.478595623285e+01 
       7.243839644211e-01       7.873289200375e+01 
       7.718090494963e-01       7.252209390742e+01 
       8.313369370294e-01       6.599751352451e+01 
       9.111494617435e-01       5.891440127398e+01 
       1.028272668606e+00       5.093589717506e+01 
       1.216166923537e+00       4.188540946199e+01 
       1.508310956472e+00       3.278488776684e+01 
       1.897374582511e+00       2.523416495631e+01 
       2.388632844222e+00       1.921655790193e+01 
       3.007110535719e+00       1.437268728438e+01 
       3.785727869474e+00       1.048846126385e+01 
       4.765949017019e+00       7.431257938891e+00 
       5.999974328840e+00       5.096742328288e+00 
       7.553520152689e+00       3.382687774562e+00 
       9.509318468720e+00       2.178180064258e+00 
       1.197152266912e+01       1.366716618754e+00 
