# Matter power spectrum P(k) at redshift z=0.5
# for k=2.03448e-07 to 10.2071 h/Mpc,
# number of wavenumbers equal to 139
#    1:k (h/Mpc)              2:P (Mpc/h)^3        
       2.034484864875e-07       6.733922117777e-01 
       2.561264696301e-07       8.399783430315e-01 
       3.224441212505e-07       1.047775136283e+00 
       4.059330981259e-07       1.306977429407e+00 
       5.110394927191e-07       1.630302094485e+00 
       6.433606038144e-07       2.033611947468e+00 
       8.099430130892e-07       2.536694000972e+00 
       1.019657841283e-06       3.164230244569e+00 
       1.283673167727e-06       3.947008577113e+00 
       1.616048771289e-06       4.923433301078e+00 
       2.034484864875e-06       6.141409279129e+00 
       2.561264696301e-06       7.660692186496e+00 
       3.224441212505e-06       9.555820147558e+00 
       4.059330981259e-06       1.191977055334e+01 
       5.110394927191e-06       1.486852139953e+01 
       6.433606038144e-06       1.854674079955e+01 
       8.099430130892e-06       2.313488354358e+01 
       1.019657841283e-05       2.885804234105e+01 
       1.283673167727e-05       3.599698697010e+01 
       1.616048771289e-05       4.490193088312e+01 
       2.034484864875e-05       5.600969660296e+01 
       2.561264696301e-05       6.986511408884e+01 
       3.224441212505e-05       8.714768605261e+01 
       4.059330981259e-05       1.087047972472e+02 
       5.110394927191e-05       1.355930354083e+02 
       6.433606038144e-05       1.691295298913e+02 
       8.099430130892e-05       2.109555884389e+02 
       1.019657841283e-04       2.631152882384e+02 
       1.283673167727e-04       3.281519704603e+02 
       1.616048771289e-04       4.092256263675e+02 
       2.034484864875e-04       5.102536214982e+02 
       2.561264696301e-04       6.360755283384e+02 
       3.224441212505e-04       7.926392260535e+02 
       4.059330981259e-04       9.871990790760e+02 
       5.110394927191e-04       1.228507980572e+03 
       6.433606038144e-04       1.526975418173e+03 
       8.099430130892e-04       1.894754847597e+03 
       1.019657841283e-03       2.345698825956e+03 
       1.283673167727e-03       2.895029084290e+03 
       1.616048771289e-03       3.558445575770e+03 
       2.034484864875e-03       4.350488933924e+03 
       2.561264696301e-03       5.281984335369e+03 
       3.224441212505e-03       6.356279985541e+03 
       4.059330981259e-03       7.564337121837e+03 
       5.110394927191e-03       8.878610688790e+03 
       6.433606038144e-03       1.024641461820e+04 
       8.099430130892e-03       1.158375988334e+04 
       1.019657841283e-02       1.277102580739e+04 
       1.283673167727e-02       1.365373553856e+04 
       1.616048771281e-02       1.405530340081e+04 
       2.034484824905e-02       1.381540202968e+04 
       2.561240561877e-02       1.287011893163e+04 
       3.221675022211e-02       1.136656262180e+04 
       3.981879418428e-02       9.799244815922e+03 
       4.593385077588e-02       8.811280145330e+03 
       5.043070547637e-02       8.216817413204e+03 
       5.418649554337e-02       7.776648349047e+03 
       5.756257837010e-02       7.406249845634e+03 
       6.072377784238e-02       7.070151632460e+03 
       6.375887946894e-02       6.751353439267e+03 
       6.672179423243e-02       6.441616762003e+03 
       6.964827234835e-02       6.137605645422e+03 
       7.256370028605e-02       5.839003861798e+03 
       7.548713692313e-02       5.547390595036e+03 
       7.843357585893e-02       5.265434491278e+03 
       8.141529517840e-02       4.996238329411e+03 
       8.444270416346e-02       4.742779114161e+03 
       8.752489662311e-02       4.507434508768e+03 
       9.067002490526e-02       4.291607793194e+03 
       9.388555985201e-02       4.095469980604e+03 
       9.717847566804e-02       3.917839351610e+03 
       1.005553838438e-01       3.756218117418e+03 
       1.040226315813e-01       3.607002550792e+03 
       1.075863749016e-01       3.465873908541e+03 
       1.112526333263e-01       3.328355165704e+03 
       1.150273309316e-01       3.190479420887e+03 
       1.189163272087e-01       3.049466146712e+03 
       1.229254402678e-01       2.904257116201e+03 
       1.270604643259e-01       2.755752127333e+03 
       1.313271830202e-01       2.606628607735e+03 
       1.357313798275e-01       2.460729154828e+03 
       1.402788466931e-01       2.322131326677e+03 
       1.449753918629e-01       2.194122131885e+03 
       1.498268478416e-01       2.078346336551e+03 
       1.548390803514e-01       1.974367360012e+03 
       1.600179991434e-01       1.879790575837e+03 
       1.653695714914e-01       1.790967949843e+03 
       1.708998391874e-01       1.704135674135e+03 
       1.766149398528e-01       1.616649189179e+03 
       1.825211333699e-01       1.527852194848e+03 
       1.886248342505e-01       1.439174615783e+03 
       1.949326507636e-01       1.353357429582e+03 
       2.014514316858e-01       1.273128339612e+03 
       2.081883215917e-01       1.199947879187e+03 
       2.151508257022e-01       1.133423958449e+03 
       2.223468854532e-01       1.071667418811e+03 
       2.297849661655e-01       1.012391111840e+03 
       2.374741584946e-01       9.541430150193e+02 
       2.454242957533e-01       8.969458335117e+02 
       2.536460897544e-01       8.419605458092e+02 
       2.621512885595e-01       7.904541890036e+02 
       2.709528604976e-01       7.428436299166e+02 
       2.800652101107e-01       6.984932261707e+02 
       2.895044333956e-01       6.563322512291e+02 
       2.992886219970e-01       6.157072008747e+02 
       3.094382290750e-01       5.767264320510e+02 
       3.199765137398e-01       5.398650108671e+02 
       3.309300866771e-01       5.053191267727e+02 
       3.423295875638e-01       4.727902966380e+02 
       3.542105361611e-01       4.418393682913e+02 
       3.666144151635e-01       4.123037204091e+02 
       3.795900665602e-01       3.842779940108e+02 
       3.931955184988e-01       3.577860659136e+02 
       4.075004131867e-01       3.326534894598e+02 
       4.225892895637e-01       3.087029538475e+02 
       4.385661069929e-01       2.858867308570e+02 
       4.555606131575e-01       2.641644005669e+02 
       4.737375255456e-01       2.434164325228e+02 
       4.933101357110e-01       2.235339532070e+02 
       5.145611075825e-01       2.044397198332e+02 
       5.378754468893e-01       1.860236697440e+02 
       5.637950206129e-01       1.681635985604e+02 
       5.931133037519e-01       1.507275661416e+02 
       6.270499688561e-01       1.335489758400e+02 
       6.675954634654e-01       1.164173160988e+02 
       7.182460011663e-01       9.905224953536e+01 
       7.856950432040e-01       8.108522845990e+01 
       8.838094759179e-01       6.217699765671e+01 
       1.040347429676e+00       4.280966293011e+01 
       1.286406180488e+00       2.610709339333e+01 
       1.617744701653e+00       1.515559992391e+01 
       2.036592493093e+00       8.694083878437e+00 
       2.563917961226e+00       4.945159377603e+00 
       3.227781475109e+00       2.791326757401e+00 
       4.063536122734e+00       1.564683290407e+00 
       5.115688886653e+00       8.715670440619e-01 
       6.440270738241e+00       4.826971565687e-01 
       8.107820491206e+00       2.659259325386e-01 
       1.020714125064e+01       1.457960071076e-01 
