# Matter power spectrum P(k) at redshift z=2
# for k=2.1038e-07 to 10.5547 h/Mpc,
# number of wavenumbers equal to 139
#    1:k (h/Mpc)              2:P (Mpc/h)^3        
       2.103796858518e-07       2.025467214617e-01 
       2.648523326441e-07       2.526534409990e-01 
       3.334293319386e-07       3.151557368010e-01 
       4.197626590151e-07       3.931200699341e-01 
       5.284498783564e-07       4.903714933384e-01 
       6.652789807224e-07       6.116813146313e-01 
       8.375366147639e-07       7.630011838414e-01 
       1.054396127634e-06       9.517550901741e-01 
       1.327406079176e-06       1.187203593442e+00 
       1.671105244845e-06       1.480898159644e+00 
       2.103796858518e-06       1.847247889617e+00 
       2.648523326441e-06       2.304226443603e+00 
       3.334293319386e-06       2.874253840240e+00 
       4.197626590151e-06       3.585296384835e+00 
       5.284498783564e-06       4.472238672217e+00 
       6.652789807224e-06       5.578594950033e+00 
       8.375366147639e-06       6.958643733049e+00 
       1.054396127634e-05       8.680090278497e+00 
       1.327406079176e-05       1.082738728770e+01 
       1.671105244845e-05       1.350587628031e+01 
       2.103796858518e-05       1.684695181731e+01 
       2.648523326441e-05       2.101450004982e+01 
       3.334293319386e-05       2.621292364896e+01 
       4.197626590151e-05       3.269713934298e+01 
       5.284498783564e-05       4.078502373407e+01 
       6.652789807224e-05       5.087288873960e+01 
       8.375366147639e-05       6.345468842799e+01 
       1.054396127634e-04       7.914578637143e+01 
       1.327406079176e-04       9.871222817063e+01 
       1.671105244845e-04       1.231065241665e+02 
       2.103796858518e-04       1.535108661700e+02 
       2.648523326441e-04       1.913883167925e+02 
       3.334293319386e-04       2.385415440467e+02 
       4.197626590151e-04       2.971767218348e+02 
       5.284498783564e-04       3.699668661713e+02 
       6.652789807224e-04       4.601041818350e+02 
       8.375366147639e-04       5.713264005097e+02 
       1.054396127634e-03       7.079002160131e+02 
       1.327406079176e-03       8.745418254617e+02 
       1.671105244845e-03       1.076222228346e+03 
       2.103796858518e-03       1.317725575802e+03 
       2.648523326441e-03       1.602850305101e+03 
       3.334293319386e-03       1.933299182327e+03 
       4.197626590151e-03       2.307162571158e+03 
       5.284498783564e-03       2.715187667455e+03 
       6.652789807224e-03       3.144292034868e+03 
       8.375366147639e-03       3.566841027125e+03 
       1.054396127634e-02       3.942995009614e+03 
       1.327406079176e-02       4.218221173665e+03 
       1.671105244842e-02       4.326119947951e+03 
       2.103796839458e-02       4.202054002344e+03 
       2.648509285411e-02       3.816889807986e+03 
       3.332401035714e-02       3.230441212225e+03 
       4.136152408972e-02       2.644811733448e+03 
       4.809577714267e-02       2.308567186444e+03 
       5.298736444814e-02       2.140092335056e+03 
       5.702792125002e-02       2.032870127400e+03 
       6.063874656820e-02       1.950652141225e+03 
       6.400817552253e-02       1.878259972277e+03 
       6.723610833732e-02       1.808084118003e+03 
       7.038253903261e-02       1.736105352460e+03 
       7.348692155544e-02       1.660433992056e+03 
       7.657708740234e-02       1.580652896469e+03 
       7.967381680456e-02       1.497438307569e+03 
       8.279338154887e-02       1.412267891030e+03 
       8.594905298030e-02       1.327145583580e+03 
       8.915204336937e-02       1.244323946109e+03 
       9.241211863905e-02       1.166031213291e+03 
       9.573801115457e-02       1.094220228617e+03 
       9.913770584741e-02       1.030358609266e+03 
       1.026186432395e-01       9.752738755634e+02 
       1.061878662574e-01       9.290586542145e+02 
       1.098521279864e-01       8.910370248116e+02 
       1.136179716293e-01       8.597949422440e+02 
       1.174917902785e-01       8.332856924565e+02 
       1.214798717796e-01       8.090306141326e+02 
       1.255884324537e-01       7.844304275204e+02 
       1.298236424523e-01       7.571761998425e+02 
       1.341916448561e-01       7.256985538043e+02 
       1.386985701911e-01       6.895420520784e+02 
       1.433505477409e-01       6.495281366212e+02 
       1.481537148433e-01       6.076080091091e+02 
       1.531142252349e-01       5.664038932018e+02 
       1.582382574251e-01       5.285544544109e+02 
       1.635320240353e-01       4.960522963648e+02 
       1.690017830043e-01       4.697515373193e+02 
       1.746538515437e-01       4.491549180758e+02 
       1.804946237132e-01       4.325264174274e+02 
       1.865305924758e-01       4.173457714091e+02 
       1.927683770909e-01       4.010694303997e+02 
       1.992147567047e-01       3.820197169458e+02 
       2.058767110108e-01       3.600410836397e+02 
       2.127614688900e-01       3.365407654822e+02 
       2.198765659919e-01       3.138079427397e+02 
       2.272299123252e-01       2.939309203315e+02 
       2.348298710695e-01       2.778597235838e+02 
       2.426853500418e-01       2.650424738205e+02 
       2.508059075591e-01       2.537781631251e+02 
       2.592018748617e-01       2.421529232043e+02 
       2.678844978313e-01       2.291227648852e+02 
       2.768661014974e-01       2.150714567668e+02 
       2.861602818334e-01       2.014005607477e+02 
       2.957821306705e-01       1.894363742787e+02 
       3.057485013210e-01       1.794901652124e+02 
       3.160783248494e-01       1.707484123459e+02 
       3.267929900796e-01       1.620341629229e+02 
       3.379168047000e-01       1.528160895912e+02 
       3.494775606947e-01       1.435610759660e+02 
       3.615072354868e-01       1.350965348226e+02 
       3.740428716916e-01       1.276919335579e+02 
       3.871276948803e-01       1.208561066001e+02 
       4.008125528267e-01       1.140137090623e+02 
       4.151577954627e-01       1.071869178040e+02 
       4.302357689760e-01       1.008002103225e+02 
       4.461341815052e-01       9.496532692134e+01 
       4.629607313367e-01       8.936453172346e+01 
       4.808496063091e-01       8.383673641013e+01 
       4.999708295205e-01       7.856460732778e+01 
       5.205440640806e-01       7.358275244597e+01 
       5.428596427596e-01       6.871458094928e+01 
       5.673117662322e-01       6.397218141251e+01 
       5.944531351077e-01       5.937458119661e+01 
       6.250893510569e-01       5.482029215876e+01 
       6.604517008701e-01       5.029656150783e+01 
       7.025355085343e-01       4.571710743414e+01 
       7.548156831162e-01       4.099507216179e+01 
       8.238817035004e-01       3.598662575136e+01 
       9.232989601010e-01       3.050815222943e+01 
       1.080696904209e+00       2.447494989213e+01 
       1.330886860773e+00       1.850733655726e+01 
       1.672851257165e+00       1.376819766644e+01 
       2.105946112727e+00       1.027222501814e+01 
       2.651228900514e+00       7.642834056202e+00 
       3.337699435251e+00       5.629375407986e+00 
       4.201914635968e+00       4.078215400128e+00 
       5.289897113410e+00       2.890918442725e+00 
       6.659585901849e+00       1.997809981361e+00 
       8.383921923864e+00       1.342939412217e+00 
       1.055473236045e+01       8.774393827993e-01 
