# Matter power spectrum P(k) at redshift z=0
# for k=2.20388e-07 to 11.0569 h/Mpc,
# number of wavenumbers equal to 139
#    1:k (h/Mpc)              2:P (Mpc/h)^3        
       2.203879499856e-07       1.195089021090e+00 
       2.774519906901e-07       1.490734342049e+00 
       3.492913616326e-07       1.859517440684e+00 
       4.397317712795e-07       2.319531396620e+00 
       5.535895012370e-07       2.893345218382e+00 
       6.969278908098e-07       3.609111113484e+00 
       8.773802319285e-07       4.501945678435e+00 
       1.104556269781e-06       5.615652770708e+00 
       1.390553956783e-06       7.004872587822e+00 
       1.750603712666e-06       8.737762387590e+00 
       2.203879499856e-06       1.089934036279e+01 
       2.774519906901e-06       1.359565671177e+01 
       3.492913616326e-06       1.695899651990e+01 
       4.397317712795e-06       2.115436965695e+01 
       5.535895012370e-06       2.638760599398e+01 
       6.969278908098e-06       3.291545289388e+01 
       8.773802319285e-06       4.105816996914e+01 
       1.104556269781e-05       5.121523821510e+01 
       1.390553956783e-05       6.388495263244e+01 
       1.750603712666e-05       7.968885644258e+01 
       2.203879499856e-05       9.940220941647e+01 
       2.774519906901e-05       1.239919728428e+02 
       3.492913616326e-05       1.546641503981e+02 
       4.397317712795e-05       1.929227595355e+02 
       5.535895012370e-05       2.406432320075e+02 
       6.969278908098e-05       3.001636585969e+02 
       8.773802319285e-05       3.743979894611e+02 
       1.104556269781e-04       4.669760310306e+02 
       1.390553956783e-04       5.824157254795e+02 
       1.750603712666e-04       7.263335153703e+02 
       2.203879499856e-04       9.056981252910e+02 
       2.774519906901e-04       1.129131080302e+03 
       3.492913616326e-04       1.407252713875e+03 
       4.397317712795e-04       1.753064455335e+03 
       5.535895012370e-04       2.182347148303e+03 
       6.969278908098e-04       2.714042274521e+03 
       8.773802319285e-04       3.370561129114e+03 
       1.104556269781e-03       4.177898207444e+03 
       1.390553956783e-03       5.165275837863e+03 
       1.750603712666e-03       6.363970036961e+03 
       2.203879499856e-03       7.804990031646e+03 
       2.774519906901e-03       9.514984753902e+03 
       3.492913616326e-03       1.150991861255e+04 
       4.397317712795e-03       1.378625477575e+04 
       5.535895012370e-03       1.630868253450e+04 
       6.969278908098e-03       1.899483645637e+04 
       8.773802319285e-03       2.169799949095e+04 
       1.104556269781e-02       2.418907889917e+04 
       1.390553956783e-02       2.614486984271e+04 
       1.750603712658e-02       2.716001539527e+04 
       2.203879462745e-02       2.682216621306e+04 
       2.774496590041e-02       2.490723373739e+04 
       3.490153154180e-02       2.170190627105e+04 
       4.317665964232e-02       1.837836694389e+04 
       4.988590835210e-02       1.641391139506e+04 
       5.480658151057e-02       1.534817585430e+04 
       5.890743267866e-02       1.462431625870e+04 
       6.258943778584e-02       1.404564627495e+04 
       6.603475099600e-02       1.352692496282e+04 
       6.934119296794e-02       1.302462822204e+04 
       7.256803035592e-02       1.251553915423e+04 
       7.575449953475e-02       1.198863493486e+04 
       7.892842559111e-02       1.144135248544e+04 
       8.211067524673e-02       1.087740859154e+04 
       8.531764899065e-02       1.030513169087e+04 
       8.856276616719e-02       9.735903546586e+03 
       9.185739566642e-02       9.182591333133e+03 
       9.521146364681e-02       8.657988271076e+03 
       9.863386404005e-02       8.173349902937e+03 
       1.021327437143e-01       7.737126831966e+03 
       1.057157051789e-01       7.353981311450e+03 
       1.093899533758e-01       7.024148451352e+03 
       1.131624035346e-01       6.743187845734e+03 
       1.170397612676e-01       6.502181716614e+03 
       1.210285824714e-01       6.288465671947e+03 
       1.251353182977e-01       6.086988332539e+03 
       1.293663489573e-01       5.882332131900e+03 
       1.337280091381e-01       5.661249001197e+03 
       1.382266071576e-01       5.415290634853e+03 
       1.428684395410e-01       5.142857232063e+03 
       1.476598024177e-01       4.849917685733e+03 
       1.526070009461e-01       4.548908306737e+03 
       1.577163578487e-01       4.255866764019e+03 
       1.629942220614e-01       3.986484046087e+03 
       1.684469784542e-01       3.752142374569e+03 
       1.740810595472e-01       3.556985597816e+03 
       1.799029601281e-01       3.396752746894e+03 
       1.859192556635e-01       3.259762108484e+03 
       1.921366253872e-01       3.130128512558e+03 
       1.985618809470e-01       2.992763243689e+03 
       2.052020014920e-01       2.838752088872e+03 
       2.120641761021e-01       2.668821756003e+03 
       2.191558544925e-01       2.492843773166e+03 
       2.264848069942e-01       2.325158701656e+03 
       2.340591949136e-01       2.177875217741e+03 
       2.418876525344e-01       2.055424632530e+03 
       2.499793822568e-01       1.952902825335e+03 
       2.583442646951e-01       1.858986348479e+03 
       2.669929860007e-01       1.762241730017e+03 
       2.759371852766e-01       1.657602194903e+03 
       2.851896257503e-01       1.548850205027e+03 
       2.947643944295e-01       1.445108098835e+03 
       3.046771363646e-01       1.353841962815e+03 
       3.149453314939e-01       1.275640879929e+03 
       3.255886245210e-01       1.204546457880e+03 
       3.366292215921e-01       1.133485588772e+03 
       3.480923720504e-01       1.060234238021e+03 
       3.600069597374e-01       9.884785168579e+02 
       3.724062369360e-01       9.230825718688e+02 
       3.853287462377e-01       8.647746012556e+02 
       3.988194931106e-01       8.099755882825e+02 
       4.129314575003e-01       7.555379465123e+02 
       4.277275708190e-01       7.022620907955e+02 
       4.432833424344e-01       6.527048347100e+02 
       4.596904094579e-01       6.069471598534e+02 
       4.770614264153e-01       5.628786535098e+02 
       4.955369449743e-01       5.199204053541e+02 
       5.152953279455e-01       4.792478327710e+02 
       5.365674296725e-01       4.407051485342e+02 
       5.596590232703e-01       4.032532619660e+02 
       5.849863222814e-01       3.671272720909e+02 
       6.131346626436e-01       3.322340648125e+02 
       6.449603647825e-01       2.980060784110e+02 
       6.817781774444e-01       2.643491938229e+02 
       7.257306365979e-01       2.307212366408e+02 
       7.805745510929e-01       1.966216887466e+02 
       8.534884412897e-01       1.613049765052e+02 
       9.593262446295e-01       1.240955314491e+02 
       1.127938543483e+00       8.583819647918e+01 
       1.393624614033e+00       5.257444871962e+01 
       1.752426162502e+00       3.060384093482e+01 
       2.206140625713e+00       1.759673201903e+01 
       2.777366392694e+00       1.003021780591e+01 
       3.496497129583e+00       5.672657492945e+00 
       4.401829088697e+00       3.185503555526e+00 
       5.541574498135e+00       1.777314864887e+00 
       6.976428957053e+00       9.858053813293e-01 
       8.782803697611e+00       5.438446762515e-01 
       1.105689476172e+01       2.985416942863e-01 
