# Matter power spectrum P(k) at redshift z=0.5
# for k=2.31128e-07 to 11.5962 h/Mpc,
# number of wavenumbers equal to 139
#    1:k (h/Mpc)              2:P (Mpc/h)^3        
       2.311284166474e-07       4.121212140266e-01 
       2.909734371051e-07       5.157449334703e-01 
       3.663138541287e-07       6.454237910418e-01 
       4.611618196549e-07       8.077090880096e-01 
       5.805683337128e-07       1.010799384002e+00 
       7.308922285941e-07       1.264954683244e+00 
       9.201387998599e-07       1.583014763497e+00 
       1.158386117521e-06       1.981047833323e+00 
       1.458321720017e-06       2.479162286382e+00 
       1.835918271901e-06       3.102522562034e+00 
       2.311284166474e-06       3.882620429355e+00 
       2.909734371051e-06       4.858865916920e+00 
       3.663138541287e-06       6.080578251030e+00 
       4.611618196549e-06       7.609477368611e+00 
       5.805683337128e-06       9.522801841228e+00 
       7.308922285941e-06       1.191721066223e+01 
       9.201387998599e-06       1.491366588685e+01 
       1.158386117521e-05       1.866354253712e+01 
       1.458321720017e-05       2.335627394567e+01 
       1.835918271901e-05       2.922891778032e+01 
       2.311284166474e-05       3.657812404989e+01 
       2.909734371051e-05       4.577510581131e+01 
       3.663138541287e-05       5.728436115588e+01 
       4.611618196549e-05       7.168707699031e+01 
       5.805683337128e-05       8.971036665350e+01 
       7.308922285941e-05       1.122637586017e+02 
       9.201387998599e-05       1.404846614733e+02 
       1.158386117521e-04       1.757948705390e+02 
       1.458321720017e-04       2.199705169907e+02 
       1.835918271901e-04       2.752281159838e+02 
       2.311284166474e-04       3.443293831702e+02 
       2.909734371051e-04       4.307069791522e+02 
       3.663138541287e-04       5.386118701118e+02 
       4.611618196549e-04       6.732800515918e+02 
       5.805683337128e-04       8.411117493254e+02 
       7.308922285941e-04       1.049850498382e+03 
       9.201387998599e-04       1.308743027150e+03 
       1.158386117521e-03       1.628645495469e+03 
       1.458321720017e-03       2.021990896792e+03 
       1.835918271901e-03       2.502452415666e+03 
       2.311284166474e-03       3.084143822382e+03 
       2.909734371051e-03       3.780172164860e+03 
       3.663138541287e-03       4.600252724198e+03 
       4.611618196549e-03       5.547230337785e+03 
       5.805683337128e-03       6.612049101287e+03 
       7.308922285941e-03       7.767156319017e+03 
       9.201387998599e-03       8.958596246051e+03 
       1.158386117521e-02       1.009718783184e+04 
       1.458321720017e-02       1.105155327046e+04 
       1.835918271886e-02       1.165016381135e+04 
       2.311284103724e-02       1.170903853359e+04 
       2.909699522787e-02       1.111011464340e+04 
       3.659407521110e-02       9.938244104350e+03 
       4.513620837426e-02       8.659600995390e+03 
       5.189782480185e-02       7.880621807436e+03 
       5.689947090907e-02       7.432742400415e+03 
       6.109571795545e-02       7.115153010482e+03 
       6.487679122877e-02       6.854241443053e+03 
       6.842221493514e-02       6.617090804455e+03 
       7.182931592406e-02       6.386555170731e+03 
       7.515746491083e-02       6.153357336082e+03 
       7.844617065781e-02       5.913028422908e+03 
       8.172356705140e-02       5.664478778569e+03 
       8.501082457429e-02       5.409156413908e+03 
       8.832463089361e-02       5.150399472668e+03 
       9.167867461550e-02       4.892826137378e+03 
       9.508457796709e-02       4.641712136908e+03 
       9.855250734045e-02       4.402359484059e+03 
       1.020915865543e-01       4.179487745018e+03 
       1.057101844213e-01       3.976689806453e+03 
       1.094161194456e-01       3.795992309558e+03 
       1.132168082212e-01       3.637555533105e+03 
       1.171193745586e-01       3.499544190289e+03 
       1.211307305722e-01       3.378203180275e+03 
       1.252576373453e-01       3.268178503853e+03 
       1.295067504811e-01       3.163118344980e+03 
       1.338846543440e-01       3.056554285085e+03 
       1.383978878063e-01       2.942986120873e+03 
       1.430529636574e-01       2.818985566599e+03 
       1.478563833914e-01       2.684038117139e+03 
       1.528146488015e-01       2.540822350289e+03 
       1.579342716160e-01       2.394730244772e+03 
       1.632217822871e-01       2.252651437636e+03 
       1.686837389672e-01       2.121293852032e+03 
       1.743267376551e-01       2.005479006234e+03 
       1.801574244673e-01       1.906864021861e+03 
       1.861825109677e-01       1.823436463587e+03 
       1.924087934760e-01       1.749982943089e+03 
       1.988431772681e-01       1.679562209868e+03 
       2.054927065764e-01       1.605734252876e+03 
       2.123646013040e-01       1.524878191945e+03 
       2.194663013825e-01       1.437602863239e+03 
       2.268055197431e-01       1.348418325936e+03 
       2.343903049394e-01       1.263632169067e+03 
       2.422291145681e-01       1.188417249230e+03 
       2.503309008092e-01       1.124468027415e+03 
       2.587052096460e-01       1.069363528778e+03 
       2.673622956736e-01       1.017983370546e+03 
       2.763132548720e-01       9.653807590776e+02 
       2.855701783536e-01       9.095890953631e+02 
       2.951463309345e-01       8.525393022083e+02 
       3.050563594947e-01       7.983422014863e+02 
       3.153165375623e-01       7.501564133241e+02 
       3.259450545089e-01       7.079832258515e+02 
       3.369623603458e-01       6.690030577879e+02 
       3.483915806098e-01       6.301233293917e+02 
       3.602590205796e-01       5.905663000764e+02 
       3.725947846035e-01       5.521231596430e+02 
       3.854335454295e-01       5.169008488632e+02 
       3.988155113174e-01       4.850303423784e+02 
       4.127876572357e-01       4.548062584042e+02 
       4.274053135347e-01       4.249081760831e+02 
       4.427342458487e-01       3.958240668462e+02 
       4.588534213682e-01       3.686735422841e+02 
       4.758587521156e-01       3.433598446609e+02 
       4.938682581336e-01       3.189056015385e+02 
       5.130293431200e-01       2.951329852178e+02 
       5.335292970403e-01       2.725657517935e+02 
       5.556108787800e-01       2.510452503609e+02 
       5.795961758686e-01       2.301091062867e+02 
       6.059244948256e-01       2.098773030767e+02 
       6.352151499761e-01       1.902424499867e+02 
       6.683768519742e-01       1.709387902217e+02 
       7.068098673747e-01       1.518762929361e+02 
       7.528063639322e-01       1.327554231289e+02 
       8.104075011170e-01       1.132666966567e+02 
       8.873816809166e-01       9.296762511290e+01 
       9.998614960222e-01       7.146174955017e+01 
       1.179849757793e+00       4.932172915015e+01 
       1.461225686074e+00       3.026078110001e+01 
       1.837897979829e+00       1.773193227234e+01 
       2.313751929258e+00       1.026533842187e+01 
       2.912841033002e+00       5.889247920998e+00 
       3.667049596939e+00       3.351257969260e+00 
       4.616541923896e+00       1.893004064402e+00 
       5.811881942605e+00       1.062148105045e+00 
       7.316725867894e+00       5.923351401653e-01 
       9.211212126223e+00       3.284933661328e-01 
       1.159622901913e+01       1.812435207240e-01 
