# Matter power spectrum P(k) at redshift z=0.5
# for k=2.27989e-07 to 11.4391 h/Mpc,
# number of wavenumbers equal to 139
#    1:k (h/Mpc)              2:P (Mpc/h)^3        
       2.279892681724e-07       5.170687143496e-01 
       2.870214833186e-07       6.449829896758e-01 
       3.613386390806e-07       8.045411476190e-01 
       4.548983950017e-07       1.003571362798e+00 
       5.726831492520e-07       1.251838370858e+00 
       7.209653694997e-07       1.561522541441e+00 
       9.076416246867e-07       1.947817465692e+00 
       1.142653106120e-06       2.429675376447e+00 
       1.438515032160e-06       3.030736971767e+00 
       1.810983129235e-06       3.780491260245e+00 
       2.279892681724e-06       4.715722326990e+00 
       2.870214833186e-06       5.882313997983e+00 
       3.613386390806e-06       7.337500932577e+00 
       4.548983950017e-06       9.152676564384e+00 
       5.726831492520e-06       1.141689561439e+01 
       7.209653694997e-06       1.424124293824e+01 
       9.076416246867e-06       1.776428289638e+01 
       1.142653106120e-05       2.215885629521e+01 
       1.438515032160e-05       2.764055777333e+01 
       1.810983129235e-05       3.447830835416e+01 
       2.279892681724e-05       4.300753953491e+01 
       2.870214833186e-05       5.364663110421e+01 
       3.613386390806e-05       6.691740001107e+01 
       4.548983950017e-05       8.347062744481e+01 
       5.726831492520e-05       1.041178409218e+02 
       7.209653694997e-05       1.298708404856e+02 
       9.076416246867e-05       1.619907704989e+02 
       1.142653106120e-04       2.020488746061e+02 
       1.438515032160e-04       2.520013892198e+02 
       1.810983129235e-04       3.142812357401e+02 
       2.279892681724e-04       3.919090802914e+02 
       2.870214833186e-04       4.886256183292e+02 
       3.613386390806e-04       6.090451218846e+02 
       4.548983950017e-04       7.588268114392e+02 
       5.726831492520e-04       9.448553031253e+02 
       7.209653694997e-04       1.175415046994e+03 
       9.076416246867e-04       1.460336744888e+03 
       1.142653106120e-03       1.811076808421e+03 
       1.438515032160e-03       2.240634073765e+03 
       1.810983129235e-03       2.763121181729e+03 
       2.279892681724e-03       3.392826079791e+03 
       2.870214833186e-03       4.142581749949e+03 
       3.613386390806e-03       5.021141838609e+03 
       4.548983950017e-03       6.029434466143e+03 
       5.726831492520e-03       7.130332456327e+03 
       7.209653694997e-03       8.330237937942e+03 
       9.076416246867e-03       9.552124689583e+03 
       1.142653106120e-02       1.070041637722e+04 
       1.438515032160e-02       1.163923389176e+04 
       1.810983129215e-02       1.219748929785e+04 
       2.279892604709e-02       1.219979393092e+04 
       2.870174419793e-02       1.154493414264e+04 
       3.609254980390e-02       1.033496902591e+04 
       4.445125182843e-02       9.042736707944e+03 
       5.099891574729e-02       8.254228691613e+03 
       5.586253247913e-02       7.787871078914e+03 
       5.995524630068e-02       7.449434330716e+03 
       6.364895253910e-02       7.167834179368e+03 
       6.711574414981e-02       6.911419607349e+03 
       7.044932416849e-02       6.663921363922e+03 
       7.370703130753e-02       6.416731082829e+03 
       7.692711265288e-02       6.165863002226e+03 
       8.013685530541e-02       5.910506718765e+03 
       8.335682488521e-02       5.652162948262e+03 
       8.660325401814e-02       5.393983256449e+03 
       8.988947346137e-02       5.140165180399e+03 
       9.322681296014e-02       4.895354912372e+03 
       9.662519163588e-02       4.664061826484e+03 
       1.000935179844e-01       4.450111937104e+03 
       1.036399684320e-01       4.256177025791e+03 
       1.072721857445e-01       4.083413804280e+03 
       1.109974229407e-01       3.931243676563e+03 
       1.148226491604e-01       3.797301715609e+03 
       1.187546283522e-01       3.677585246883e+03 
       1.227999781522e-01       3.566835476787e+03 
       1.269652140970e-01       3.459171739400e+03 
       1.312567828594e-01       3.348956557282e+03 
       1.356810872402e-01       3.231791750956e+03 
       1.402445050097e-01       3.105448845222e+03 
       1.449534032735e-01       2.970466858742e+03 
       1.498141497488e-01       2.830166448920e+03 
       1.548331221595e-01       2.689963594585e+03 
       1.600167168349e-01       2.556087859937e+03 
       1.653713575212e-01       2.434021716299e+03 
       1.709035053701e-01       2.327079402849e+03 
       1.766196710366e-01       2.235504211854e+03 
       1.825264298004e-01       2.156340549244e+03 
       1.886304406126e-01       2.084197314128e+03 
       1.949384699609e-01       2.012843709409e+03 
       2.014574214428e-01       1.937288283604e+03 
       2.081943719425e-01       1.855621366462e+03 
       2.151566153224e-01       1.769731411776e+03 
       2.223517145814e-01       1.684373600473e+03 
       2.297875634973e-01       1.604915281060e+03 
       2.374724588843e-01       1.534843309104e+03 
       2.454151847611e-01       1.474243269003e+03 
       2.536251099709e-01       1.419962574481e+03 
       2.621123011325e-01       1.367411974863e+03 
       2.708876532676e-01       1.313150021224e+03 
       2.799630410732e-01       1.256764882889e+03 
       2.893514946406e-01       1.200754380432e+03 
       2.990674045204e-01       1.148444795987e+03 
       3.091267624903e-01       1.101512868907e+03 
       3.195474463076e-01       1.058955614863e+03 
       3.303495593010e-01       1.018192156961e+03 
       3.415558391182e-01       9.773223447904e+02 
       3.531921546425e-01       9.365599481341e+02 
       3.652881165639e-01       8.975482035604e+02 
       3.778778361071e-01       8.613893639423e+02 
       3.910008791823e-01       8.275461705986e+02 
       4.047034815791e-01       7.946971380838e+02 
       4.190401176769e-01       7.623365289919e+02 
       4.340755551843e-01       7.310665206611e+02 
       4.498875893592e-01       7.013798967916e+02 
       4.665707450184e-01       6.728733839343e+02 
       4.842413860463e-01       6.449823674405e+02 
       5.030449205107e-01       6.177665910954e+02 
       5.231662098690e-01       5.913881030067e+02 
       5.448450272699e-01       5.655520764301e+02 
       5.683997520333e-01       5.400111756104e+02 
       5.942650440880e-01       5.147188067860e+02 
       6.230543654362e-01       4.893984606183e+02 
       6.556690888807e-01       4.637442772072e+02 
       6.935005462242e-01       4.373651387112e+02 
       7.388310859269e-01       4.096418567908e+02 
       7.956948501702e-01       3.796272549406e+02 
       8.718683986635e-01       3.457571081854e+02 
       9.835259350342e-01       3.055253892111e+02 
       1.162535549659e+00       2.562847211712e+02 
       1.441274394456e+00       2.015716523068e+02 
       1.812985324549e+00       1.516766191745e+02 
       2.282392771770e+00       1.097662378889e+02 
       2.873362206925e+00       7.621452370310e+01 
       3.617348699569e+00       5.092737310111e+01 
       4.553972201208e+00       3.295968353204e+01 
       5.733111328705e+00       2.080065698287e+01 
       7.217559540351e+00       1.287767051116e+01 
       9.086369116486e+00       7.859395006391e+00 
       1.143906098169e+01       4.746589898024e+00 
