# Matter power spectrum P(k) at redshift z=2
# for k=2.04517e-07 to 10.2607 h/Mpc,
# number of wavenumbers equal to 139
#    1:k (h/Mpc)              2:P (Mpc/h)^3        
       2.045169608391e-07       1.752634938764e-01 
       2.574715991432e-07       2.186207927482e-01 
       3.241375389767e-07       2.727039724162e-01 
       4.080649847342e-07       3.401664389113e-01 
       5.137233789453e-07       4.243180069854e-01 
       6.467394163870e-07       5.292872848181e-01 
       8.141966860985e-07       6.602242296476e-01 
       1.025012898328e-06       8.235528124980e-01 
       1.290414785122e-06       1.027286186593e+00 
       1.624535964745e-06       1.281419824875e+00 
       2.045169608391e-06       1.598421907936e+00 
       2.574715991432e-06       1.993845024926e+00 
       3.241375389767e-06       2.487089192676e+00 
       4.080649847342e-06       3.102353620524e+00 
       5.137233789453e-06       3.869823897778e+00 
       6.467394163870e-06       4.827152825241e+00 
       8.141966860985e-06       6.021307480344e+00 
       1.025012898328e-05       7.510873011061e+00 
       1.290414785122e-05       9.368925979257e+00 
       1.624535964745e-05       1.168661773103e+01 
       2.045169608391e-05       1.457764273655e+01 
       2.574715991432e-05       1.818380930239e+01 
       3.241375389767e-05       2.268198246996e+01 
       4.080649847342e-05       2.829273274381e+01 
       5.137233789453e-05       3.529110126139e+01 
       6.467394163870e-05       4.401998237662e+01 
       8.141966860985e-05       5.490672700831e+01 
       1.025012898328e-04       6.848367632069e+01 
       1.290414785122e-04       8.541342804472e+01 
       1.624535964745e-04       1.065196754986e+02 
       2.045169608391e-04       1.328243621931e+02 
       2.574715991432e-04       1.655915114106e+02 
       3.241375389767e-04       2.063771658179e+02 
       4.080649847342e-04       2.570830375284e+02 
       5.137233789453e-04       3.200083604737e+02 
       6.467394163870e-04       3.978901521464e+02 
       8.141966860985e-04       4.939180490303e+02 
       1.025012898328e-03       6.117085699617e+02 
       1.290414785122e-03       7.552213366929e+02 
       1.624535964745e-03       9.285707216542e+02 
       2.045169608391e-03       1.135617698625e+03 
       2.574715991432e-03       1.379258162886e+03 
       3.241375389767e-03       1.660461620113e+03 
       4.080649847342e-03       1.976979259215e+03 
       5.137233789453e-03       2.321714735446e+03 
       6.467394163870e-03       2.680923509768e+03 
       8.141966860985e-03       3.032480999718e+03 
       1.025012898328e-02       3.344557823611e+03 
       1.290414785122e-02       3.575590096581e+03 
       1.624535964737e-02       3.677493097179e+03 
       2.045169570733e-02       3.606093844716e+03 
       2.574692869807e-02       3.343677517441e+03 
       3.238688923399e-02       2.931925290513e+03 
       4.004470700930e-02       2.509295867604e+03 
       4.622501131266e-02       2.249484755781e+03 
       5.076470359951e-02       2.097731904566e+03 
       5.455281911371e-02       1.987568320922e+03 
       5.795630950675e-02       1.895689955676e+03 
       6.114226456546e-02       1.812299912398e+03 
       6.420057452935e-02       1.732668669357e+03 
       6.718577071577e-02       1.654486361437e+03 
       7.013398939324e-02       1.576821927251e+03 
       7.307087685437e-02       1.499618792896e+03 
       7.601567813539e-02       1.423392205104e+03 
       7.898352733026e-02       1.349007570746e+03 
       8.198681336726e-02       1.277493626713e+03 
       8.503603641280e-02       1.209876887878e+03 
       8.814036734661e-02       1.147036503746e+03 
       9.130802582151e-02       1.089583734495e+03 
       9.454654297170e-02       1.037772721926e+03 
       9.786294820379e-02       9.914486036625e+02 
       1.012639044925e-01       9.500384477929e+02 
       1.047558078042e-01       9.125910128205e+02 
       1.083448609387e-01       8.778700130449e+02 
       1.120371287589e-01       8.445022329760e+02 
       1.158385796534e-01       8.111715871040e+02 
       1.197551167061e-01       7.768356365890e+02 
       1.237926011307e-01       7.409230977107e+02 
       1.279568699328e-01       7.034596786143e+02 
       1.322537493531e-01       6.650744749962e+02 
       1.366890653847e-01       6.268641912664e+02 
       1.412686524774e-01       5.901341995561e+02 
       1.459983614307e-01       5.560755176207e+02 
       1.508840674050e-01       5.254614436938e+02 
       1.559316789331e-01       4.984451160750e+02 
       1.611471487910e-01       4.745171618929e+02 
       1.665364875617e-01       4.526481693074e+02 
       1.721057807207e-01       4.315978543109e+02 
       1.778612100601e-01       4.103154069267e+02 
       1.838090802647e-01       3.882968368261e+02 
       1.899558514597e-01       3.657446272330e+02 
       1.963081785611e-01       3.434366569473e+02 
       2.028729582958e-01       3.223463427607e+02 
       2.096573848163e-01       3.031881847175e+02 
       2.166690149328e-01       2.861057495272e+02 
       2.239158441346e-01       2.706493304145e+02 
       2.314063947861e-01       2.560513909947e+02 
       2.391498181885e-01       2.416559419175e+02 
       2.471560126088e-01       2.272582325155e+02 
       2.554357599377e-01       2.131440530346e+02 
       2.640008843803e-01       1.998102980213e+02 
       2.728644375644e-01       1.875770170221e+02 
       2.820409157510e-01       1.763758998868e+02 
       2.915465165546e-01       1.658544387785e+02 
       3.013994448722e-01       1.556848644632e+02 
       3.116202808082e-01       1.458037862876e+02 
       3.222324265655e-01       1.363804357220e+02 
       3.332626550323e-01       1.275774412881e+02 
       3.447417908035e-01       1.193682609019e+02 
       3.567055657073e-01       1.115895029644e+02 
       3.691957071680e-01       1.041305031713e+02 
       3.822613414984e-01       9.701604201119e+01 
       3.959608295800e-01       9.030199271752e+01 
       4.103642061185e-01       8.396059911746e+01 
       4.255564771237e-01       7.791705248050e+01 
       4.416421631767e-01       7.214473640202e+01 
       4.587516935697e-01       6.665211445606e+01 
       4.770506234904e-01       6.141491315419e+01 
       4.967532875517e-01       5.639329520725e+01 
       5.181436670453e-01       5.157005556921e+01 
       5.416084569045e-01       4.692167972493e+01 
       5.676917236918e-01       4.241351730731e+01 
       5.971898465513e-01       3.801411722692e+01 
       6.313263634743e-01       3.368083914448e+01 
       6.720968239343e-01       2.936089094510e+01 
       7.230038297904e-01       2.498368660574e+01 
       7.907476308620e-01       2.045670325246e+01 
       8.892022259439e-01       1.569450934723e+01 
       1.046186563708e+00       1.081498036798e+01 
       1.293203683313e+00       6.598511556771e+00 
       1.626234353736e+00       3.829857632445e+00 
       2.047278861562e+00       2.196509901792e+00 
       2.577371296226e+00       1.249113951634e+00 
       3.244718220412e+00       7.049461305257e-01 
       4.084858221789e+00       3.950972794704e-01 
       5.142531818986e+00       2.200486751803e-01 
       6.474063987882e+00       1.218540061010e-01 
       8.150363671926e+00       6.712415194083e-02 
       1.026069994195e+01       3.679784811944e-02 
