# Matter power spectrum P(k) at redshift z=1
# for k=1.60859e-07 to 10.1639 h/Mpc,
# number of wavenumbers equal to 140
#    1:k (h/Mpc)              2:P (Mpc/h)^3        
       1.608588856452e-07       9.989674677178e-01 
       2.025093388517e-07       1.246095548830e+00 
       2.549441528060e-07       1.554359041850e+00 
       3.209556725558e-07       1.938881838495e+00 
       4.040592522400e-07       2.418529230466e+00 
       5.086804605154e-07       3.016833469191e+00 
       6.403907582261e-07       3.763148291963e+00 
       8.062041990089e-07       4.694089056580e+00 
       1.014950953227e-06       5.855329136607e+00 
       1.277747546743e-06       7.303840705416e+00 
       1.608588856452e-06       9.110689834141e+00 
       2.025093388517e-06       1.136452301267e+01 
       2.549441528060e-06       1.417591610279e+01 
       3.209556725558e-06       1.768279900516e+01 
       4.040592522400e-06       2.205722199895e+01 
       5.086804605154e-06       2.751379539058e+01 
       6.403907582261e-06       3.432021583468e+01 
       8.062041990089e-06       4.281039444094e+01 
       1.014950953227e-05       5.340082804843e+01 
       1.277747546743e-05       6.661101163745e+01 
       1.608588856452e-05       8.308888292265e+01 
       2.025093388517e-05       1.036425268751e+02 
       2.549441528060e-05       1.292796550676e+02 
       3.209556725558e-05       1.612567165432e+02 
       4.040592522400e-05       2.011398914903e+02 
       5.086804605154e-05       2.508806490573e+02 
       6.403907582261e-05       3.129089644398e+02 
       8.062041990089e-05       3.902475725703e+02 
       1.014950953227e-04       4.866505368413e+02 
       1.277747546743e-04       6.067684501040e+02 
       1.608588856452e-04       7.563398750196e+02 
       2.025093388517e-04       9.424026993251e+02 
       2.549441528060e-04       1.173507861886e+03 
       3.209556725558e-04       1.459899564943e+03 
       4.040592522400e-04       1.813601988908e+03 
       5.086804605154e-04       2.248332817478e+03 
       6.403907582261e-04       2.779166577910e+03 
       8.062041990089e-04       3.421878402770e+03 
       1.014950953227e-03       4.191762313371e+03 
       1.277747546743e-03       5.101350815844e+03 
       1.608588856452e-03       6.156642328114e+03 
       2.025093388517e-03       7.352284189154e+03 
       2.549441528060e-03       8.665986958782e+03 
       3.209556725558e-03       1.005303783447e+04 
       4.040592522400e-03       1.144028534166e+04 
       5.086804605154e-03       1.272305578811e+04 
       6.403907582261e-03       1.376439482976e+04 
       8.062041990089e-03       1.439796863599e+04 
       1.014950953227e-02       1.443671909120e+04 
       1.277747546743e-02       1.369692373524e+04 
       1.608588856135e-02       1.205999774040e+04 
       2.025092778414e-02       9.599958372832e+03 
       2.549261605939e-02       6.747464941140e+03 
       3.198096032146e-02       4.306583442694e+03 
       3.860980661075e-02       3.041885931947e+03 
       4.341924110566e-02       2.650504512607e+03 
       4.716120110081e-02       2.519802491150e+03 
       5.040007439043e-02       2.466366106629e+03 
       5.336826948348e-02       2.428983175729e+03 
       5.617990596618e-02       2.380100374582e+03 
       5.889984809966e-02       2.306123567862e+03 
       6.156904550423e-02       2.201652065046e+03 
       6.421547488214e-02       2.067226767824e+03 
       6.685948465318e-02       1.907946401243e+03 
       6.951665990866e-02       1.732151854585e+03 
       7.219947255328e-02       1.549984967835e+03 
       7.491828745403e-02       1.371892368764e+03 
       7.768200485022e-02       1.207263094424e+03 
       8.049848631969e-02       1.063408178738e+03 
       8.337484618408e-02       9.450211378164e+02 
       8.631765606563e-02       8.541237253490e+02 
       8.933309153444e-02       7.903539692460e+02 
       9.242703902077e-02       7.513590558928e+02 
       9.560517476499e-02       7.330766069158e+02 
       9.887302365051e-02       7.298413867325e+02 
       1.022360032922e-01       7.344821185433e+02 
       1.056994571619e-01       7.387446452550e+02 
       1.092686794907e-01       7.343439324723e+02 
       1.129489340026e-01       7.146432099478e+02 
       1.167454680707e-01       6.764914855796e+02 
       1.206635235869e-01       6.214027608126e+02 
       1.247083456305e-01       5.553407862140e+02 
       1.288851898922e-01       4.869710542304e+02 
       1.331993297224e-01       4.250538420980e+02 
       1.376560636205e-01       3.761093809025e+02 
       1.422607239499e-01       3.431904221690e+02 
       1.470186876397e-01       3.257715041263e+02 
       1.519353896224e-01       3.201800158839e+02 
       1.570163397479e-01       3.202445021531e+02 
       1.622671439069e-01       3.185499734324e+02 
       1.676935300972e-01       3.087496420552e+02 
       1.733013801731e-01       2.882756198031e+02 
       1.790967680380e-01       2.596368161807e+02 
       1.850860050763e-01       2.289998208204e+02 
       1.912756936912e-01       2.028593731497e+02 
       1.976727899177e-01       1.850592166728e+02 
       2.042846762362e-01       1.756269944264e+02 
       2.111192459395e-01       1.712535150051e+02 
       2.181850007121e-01       1.669364689708e+02 
       2.254911635095e-01       1.586089724682e+02 
       2.330478093857e-01       1.455877023066e+02 
       2.408660176703e-01       1.307381894875e+02 
       2.489580498916e-01       1.179768975988e+02 
       2.573375591526e-01       1.093765278078e+02 
       2.660198384144e-01       1.040801133168e+02 
       2.750221174737e-01       9.935367882321e+01 
       2.843639215696e-01       9.294328677297e+01 
       2.940675088507e-01       8.494174423446e+01 
       3.041584098701e-01       7.728002778596e+01 
       3.146661005891e-01       7.145226496063e+01 
       3.256248522014e-01       6.708833712353e+01 
       3.370748181933e-01       6.272100790733e+01 
       3.490634442351e-01       5.767307516589e+01 
       3.616473242874e-01       5.269000506738e+01 
       3.748946842404e-01       4.856764192122e+01 
       3.888887653018e-01       4.499248489818e+01 
       4.037325257189e-01       4.129758320336e+01 
       4.195553219358e-01       3.762020001403e+01 
       4.365226452610e-01       3.436682329128e+01 
       4.548507262764e-01       3.131901025669e+01 
       4.748291796500e-01       2.828249618893e+01 
       4.968574955056e-01       2.545147913999e+01 
       5.215065575940e-01       2.273135379711e+01 
       5.496280108603e-01       2.007871004618e+01 
       5.825612572804e-01       1.750206645991e+01 
       6.225547801381e-01       1.494755157484e+01 
       6.736945611917e-01       1.237826052465e+01 
       7.440876829764e-01       9.748159806703e+00 
       8.507401285891e-01       7.046228497097e+00 
       1.023715942003e+00       4.479272850558e+00 
       1.279833760578e+00       2.576264252028e+00 
       1.610865488035e+00       1.447224474116e+00 
       2.027956611186e+00       8.073840350388e-01 
       2.553046107858e+00       4.478133183190e-01 
       3.214094622664e+00       2.470552000747e-01 
       4.046305396382e+00       1.356313105583e-01 
       5.093996687386e+00       7.412383208987e-02 
       6.412961877345e+00       4.033959639015e-02 
       8.073440672257e+00       2.186770608059e-02 
       1.016385962292e+01       1.181064310545e-02 
