# Matter power spectrum P(k) at redshift z=1
# for k=2.25486e-07 to 11.3128 h/Mpc,
# number of wavenumbers equal to 139
#    1:k (h/Mpc)              2:P (Mpc/h)^3        
       2.254857887844e-07       2.408335045353e-01 
       2.838697894991e-07       3.020973427276e-01 
       3.573708916410e-07       3.789456314426e-01 
       4.499032969225e-07       4.753427827200e-01 
       5.663946933457e-07       5.962616855381e-01 
       7.130486725582e-07       7.479402447332e-01 
       8.976750937296e-07       9.382031786823e-01 
       1.130105987031e-06       1.176865676384e+00 
       1.422719145094e-06       1.476239737210e+00 
       1.791097285605e-06       1.851769314237e+00 
       2.254857887844e-06       2.322827023515e+00 
       2.838697894991e-06       2.913713519154e+00 
       3.573708916410e-06       3.654911083319e+00 
       4.499032969225e-06       4.584656090500e+00 
       5.663946933457e-06       5.750911445973e+00 
       7.130486725582e-06       7.213840711918e+00 
       8.976750937296e-06       9.048911475505e+00 
       1.130105987031e-05       1.135078789988e+01 
       1.422719145094e-05       1.423821294434e+01 
       1.791097285605e-05       1.786013150858e+01 
       2.254857887844e-05       2.240336912998e+01 
       2.838697894991e-05       2.810225991664e+01 
       3.573708916410e-05       3.525071552356e+01 
       4.499032969225e-05       4.421734810892e+01 
       5.663946933457e-05       5.546440824029e+01 
       7.130486725582e-05       6.957147666120e+01 
       8.976750937296e-05       8.726505690484e+01 
       1.130105987031e-04       1.094554468785e+02 
       1.422719145094e-04       1.372825000418e+02 
       1.791097285605e-04       1.721720684401e+02 
       2.254857887844e-04       2.159049435556e+02 
       2.838697894991e-04       2.706997768615e+02 
       3.573708916410e-04       3.393104410664e+02 
       4.499032969225e-04       4.251361457315e+02 
       5.663946933457e-04       5.323390072652e+02 
       7.130486725582e-04       6.659590042160e+02 
       8.976750937296e-04       8.320115569180e+02 
       1.130105987031e-03       1.037546944311e+03 
       1.422719145094e-03       1.290627321326e+03 
       1.791097285605e-03       1.600111955047e+03 
       2.254857887844e-03       1.975098879699e+03 
       2.838697894991e-03       2.423934539506e+03 
       3.573708916410e-03       2.952625878523e+03 
       4.499032969225e-03       3.562523633469e+03 
       5.663946933457e-03       4.238015204777e+03 
       7.130486725582e-03       4.973947252886e+03 
       8.976750937296e-03       5.727728077877e+03 
       1.130105987031e-02       6.439903203661e+03 
       1.422719145094e-02       7.024064428462e+03 
       1.791097285594e-02       7.368935203023e+03 
       2.254857839826e-02       7.357523903461e+03 
       2.838669498596e-02       6.919389355983e+03 
       3.570508948058e-02       6.119498830664e+03 
       4.410842280326e-02       5.266373265385e+03 
       5.084056915543e-02       4.754719002897e+03 
       5.579830066750e-02       4.469279266686e+03 
       5.994369215440e-02       4.271297987272e+03 
       6.367222709871e-02       4.110904543385e+03 
       6.716467958002e-02       3.966185449327e+03 
       7.051858293058e-02       3.825873252104e+03 
       7.379322798585e-02       3.683942611483e+03 
       7.702796678277e-02       3.537536030521e+03 
       8.025076287943e-02       3.385999554305e+03 
       8.348262199182e-02       3.230315910427e+03 
       8.674007739254e-02       3.072670341456e+03 
       9.003667371066e-02       2.916045530047e+03 
       9.338389820076e-02       2.763813630943e+03 
       9.679178958790e-02       2.619329000479e+03 
       1.002693497466e-01       2.485543009023e+03 
       1.038248299189e-01       2.364667270835e+03 
       1.074659343064e-01       2.257909624065e+03 
       1.111999675860e-01       2.165301716039e+03 
       1.150339433401e-01       2.085633383781e+03 
       1.189746646025e-01       2.016511161330e+03 
       1.230287841084e-01       1.954563425741e+03 
       1.272028495291e-01       1.895813122890e+03 
       1.315033374762e-01       1.836220630086e+03 
       1.359366790688e-01       1.772351899313e+03 
       1.405092792038e-01       1.702059698978e+03 
       1.452275312296e-01       1.625002853787e+03 
       1.500978284341e-01       1.542815000161e+03 
       1.551265735681e-01       1.458799842588e+03 
       1.603201874989e-01       1.377171429746e+03 
       1.656851180144e-01       1.302017079312e+03 
       1.712278497449e-01       1.236261010013e+03 
       1.769549161428e-01       1.180904015053e+03 
       1.828729144372e-01       1.134735347917e+03 
       1.889885244719e-01       1.094620463897e+03 
       1.953085323209e-01       1.056376635707e+03 
       2.018398595779e-01       1.016098907190e+03 
       2.085895992157e-01       9.715527616766e+02 
       2.155650589304e-01       9.230371191717e+02 
       2.227738129219e-01       8.732023037396e+02 
       2.302237631269e-01       8.257934156145e+02 
       2.379232110309e-01       7.838989422109e+02 
       2.458809413479e-01       7.485622030559e+02 
       2.541063190944e-01       7.184038195136e+02 
       2.626094019209e-01       6.904367983731e+02 
       2.714010700186e-01       6.617327701494e+02 
       2.804931765361e-01       6.310749640140e+02 
       2.898987222606e-01       5.995288817838e+02 
       2.996320594000e-01       5.694656613720e+02 
       3.097091307397e-01       5.427430093494e+02 
       3.201477523436e-01       5.194140388102e+02 
       3.309679505068e-01       4.978925168603e+02 
       3.421923670679e-01       4.763905675028e+02 
       3.538467518174e-01       4.544116043089e+02 
       3.659605670932e-01       4.329360955009e+02 
       3.785677385107e-01       4.131654723616e+02 
       3.917075982949e-01       3.952120027765e+02 
       4.054260856655e-01       3.781391249217e+02 
       4.197772950068e-01       3.611850642537e+02 
       4.348255016904e-01       3.445839282678e+02 
       4.506478548943e-01       3.289504410247e+02 
       4.673380192078e-01       3.142530022840e+02 
       4.850111940959e-01       2.999571413978e+02 
       5.038111814941e-01       2.859354418477e+02 
       5.239205791040e-01       2.724532957061e+02 
       5.455758888625e-01       2.594275769038e+02 
       5.690906237224e-01       2.465894428595e+02 
       5.948919527180e-01       2.339645262205e+02 
       6.235813301017e-01       2.214673723093e+02 
       6.560399244002e-01       2.089008654711e+02 
       6.936230324749e-01       1.961343575341e+02 
       7.385441051613e-01       1.828814138621e+02 
       7.946946287623e-01       1.687581257956e+02 
       8.695323539576e-01       1.531300051920e+02 
       9.785170421415e-01       1.350249174368e+02 
       1.152529058704e+00       1.134988185722e+02 
       1.425694386588e+00       9.016387697101e+01 
       1.792987319827e+00       6.936394417382e+01 
       2.257208643185e+00       5.206027543407e+01 
       2.841657236893e+00       3.789114239534e+01 
       3.577434507100e+00       2.662160942004e+01 
       4.503723210018e+00       1.803766721089e+01 
       5.669851596779e+00       1.181993304632e+01 
       7.137920256287e+00       7.528411272123e+00 
       8.986109198000e+00       4.685725415179e+00 
       1.131284122252e+01       2.864076996672e+00 
