# Matter power spectrum P(k) at redshift z=1.5
# for k=1.72855e-07 to 10.9212 h/Mpc,
# number of wavenumbers equal to 140
#    1:k (h/Mpc)              2:P (Mpc/h)^3        
       1.728546265440e-07       7.045979832254e-01 
       2.176110819024e-07       8.789039074777e-01 
       2.739561208950e-07       1.096330243066e+00 
       3.448903223112e-07       1.367544268311e+00 
       4.341911910395e-07       1.705852169194e+00 
       5.466143239768e-07       2.127851861525e+00 
       6.881466629051e-07       2.654247308938e+00 
       8.663253209726e-07       3.310864288676e+00 
       1.090638961453e-06       4.129917438274e+00 
       1.373033103666e-06       5.151590743275e+00 
       1.728546265440e-06       6.426009000960e+00 
       2.176110819024e-06       8.015696969121e+00 
       2.739561208950e-06       9.998646830465e+00 
       3.448903223112e-06       1.247214440591e+01 
       4.341911910395e-06       1.555754175342e+01 
       5.466143239768e-06       1.940621010464e+01 
       6.881466629051e-06       2.420696480582e+01 
       8.663253209726e-06       3.019532583156e+01 
       1.090638961453e-05       3.766506664295e+01 
       1.373033103666e-05       4.698261514796e+01 
       1.728546265440e-05       5.860500738667e+01 
       2.176110819024e-05       7.310226336644e+01 
       2.739561208950e-05       9.118526007112e+01 
       3.448903223112e-05       1.137404243945e+02 
       4.341911910395e-05       1.418728595412e+02 
       5.466143239768e-05       1.769598467578e+02 
       6.881466629051e-05       2.207170042963e+02 
       8.663253209726e-05       2.752796780774e+02 
       1.090638961453e-04       3.433022465705e+02 
       1.373033103666e-04       4.280776752490e+02 
       1.728546265440e-04       5.336783371235e+02 
       2.176110819024e-04       6.651159218847e+02 
       2.739561208950e-04       8.285117979397e+02 
       3.448903223112e-04       1.031257830724e+03 
       4.341911910395e-04       1.282130890640e+03 
       5.466143239768e-04       1.591306209571e+03 
       6.881466629051e-04       1.970207542662e+03 
       8.663253209726e-04       2.431142195633e+03 
       1.090638961453e-03       2.986633253975e+03 
       1.373033103666e-03       3.648129887148e+03 
       1.728546265440e-03       4.423595239126e+03 
       2.176110819024e-03       5.314106742594e+03 
       2.739561208950e-03       6.309799484588e+03 
       3.448903223112e-03       7.385240825018e+03 
       4.341911910395e-03       8.494106744527e+03 
       5.466143239768e-03       9.564879172055e+03 
       6.881466629051e-03       1.049789713975e+04 
       8.663253209726e-03       1.116471093985e+04 
       1.090638961453e-02       1.141227601886e+04 
       1.373033103666e-02       1.107979362371e+04 
       1.728546264256e-02       1.004594312773e+04 
       2.176109145457e-02       8.329064505825e+03 
       2.739177616453e-02       6.222455625051e+03 
       3.429113905173e-02       4.343598391269e+03 
       4.093573382596e-02       3.341365603790e+03 
       4.569598613804e-02       2.976825570933e+03 
       4.947559058787e-02       2.812561120055e+03 
       5.278325617252e-02       2.714582837305e+03 
       5.583312394218e-02       2.634736837750e+03 
       5.873304646688e-02       2.550804826168e+03 
       6.154544479455e-02       2.451769269125e+03 
       6.431025397061e-02       2.333105190396e+03 
       6.705504115781e-02       2.194835255834e+03 
       6.980002633654e-02       2.040380334195e+03 
       7.256080618247e-02       1.875572867463e+03 
       7.534993784041e-02       1.707647884015e+03 
       7.817791195842e-02       1.544217294723e+03 
       8.105377781392e-02       1.392321318621e+03 
       8.398555994147e-02       1.257671708956e+03 
       8.698054435599e-02       1.144169163105e+03 
       9.004548017046e-02       1.053709098054e+03 
       9.318672454188e-02       9.862109427857e+02 
       9.641034857461e-02       9.397605684752e+02 
       9.972221565103e-02       9.107706971878e+02 
       1.031280398651e-01       8.941497089446e+02 
       1.066334298365e-01       8.835850434049e+02 
       1.102439216355e-01       8.721189712419e+02 
       1.139650035363e-01       8.531394840899e+02 
       1.178021346425e-01       8.217023305941e+02 
       1.217607589835e-01       7.758197816565e+02 
       1.258463163809e-01       7.171734336585e+02 
       1.300642511884e-01       6.508066308455e+02 
       1.344200198809e-01       5.837575562659e+02 
       1.389190983848e-01       5.231036368909e+02 
       1.435669899911e-01       4.741572671156e+02 
       1.483692346606e-01       4.393723092834e+02 
       1.533314205093e-01       4.180486559536e+02 
       1.584591982501e-01       4.066088758880e+02 
       1.637582993566e-01       3.993533528044e+02 
       1.692345587105e-01       3.898895475292e+02 
       1.748939424948e-01       3.732541448358e+02 
       1.807425821011e-01       3.479682063820e+02 
       1.867868148456e-01       3.167044110726e+02 
       1.930332323281e-01       2.848581722128e+02 
       1.994887373481e-01       2.578064210275e+02 
       2.061606104016e-01       2.385095843215e+02 
       2.130565869604e-01       2.265393147381e+02 
       2.201849469774e-01       2.185892838366e+02 
       2.275546183998e-01       2.101939548387e+02 
       2.351752969328e-01       1.981773568118e+02 
       2.430575849081e-01       1.825054076649e+02 
       2.512131529245e-01       1.659870278396e+02 
       2.596549290045e-01       1.519464670831e+02 
       2.683973214324e-01       1.418330085721e+02 
       2.774564833307e-01       1.344972301418e+02 
       2.868506295640e-01       1.273951449022e+02 
       2.966004199816e-01       1.187903274887e+02 
       3.067294276869e-01       1.091278493157e+02 
       3.172647174970e-01       1.002082991625e+02 
       3.282375688502e-01       9.312943193025e+01 
       3.396843903816e-01       8.728548355734e+01 
       3.516478921867e-01       8.134844489253e+01 
       3.641786095378e-01       7.493840423720e+01 
       3.773369135952e-01       6.884799605929e+01 
       3.911957089087e-01       6.365248287156e+01 
       4.058441187069e-01       5.891321403158e+01 
       4.213926225992e-01       5.409852564319e+01 
       4.379803836873e-01       4.944943298838e+01 
       4.557859705649e-01       4.525706537379e+01 
       4.750435156424e-01       4.124669983230e+01 
       4.960679063909e-01       3.731641596908e+01 
       5.192956393341e-01       3.362783835842e+01 
       5.453542097834e-01       3.004690736017e+01 
       5.751865665571e-01       2.656540986375e+01 
       6.102891138912e-01       2.315160614745e+01 
       6.532018813671e-01       1.975573201235e+01 
       7.086014263164e-01       1.631620119863e+01 
       7.858833830123e-01       1.277039187506e+01 
       9.047100954984e-01       9.121810977795e+00 
       1.097241942895e+00       5.721454225983e+00 
       1.375048173513e+00       3.291052443219e+00 
       1.730888387811e+00       1.858526320919e+00 
       2.179058123712e+00       1.042055201552e+00 
       2.743271644440e+00       5.806142778803e-01 
       3.453574384640e+00       3.216577217903e-01 
       4.347792554344e+00       1.772626748504e-01 
       5.473546531874e+00       9.721648492395e-02 
       6.890786821614e+00       5.307902429141e-02 
       8.674986636986e+00       2.886063093489e-02 
       1.092116112428e+01       1.563170558137e-02 
