# Matter power spectrum P(k) at redshift z=2
# for k=2.11009e-07 to 10.5863 h/Mpc,
# number of wavenumbers equal to 139
#    1:k (h/Mpc)              2:P (Mpc/h)^3        
       2.110086845704e-07       2.588984147445e-01 
       2.656441951149e-07       3.214100045457e-01 
       3.344262277258e-07       3.990151546101e-01 
       4.210176764545e-07       4.953582380380e-01 
       5.300298517030e-07       6.149635696208e-01 
       6.672680493185e-07       7.634478696136e-01 
       8.400407037653e-07       9.477840270527e-01 
       1.057548588912e-06       1.176628549188e+00 
       1.331374792788e-06       1.460728073570e+00 
       1.676101559263e-06       1.813424032759e+00 
       2.110086845704e-06       2.251279168659e+00 
       2.656441951149e-06       2.794855315735e+00 
       3.344262277258e-06       3.469678974679e+00 
       4.210176764545e-06       4.307440010324e+00 
       5.300298517030e-06       5.347479741690e+00 
       6.672680493185e-06       6.638638276279e+00 
       8.400407037653e-06       8.241547766911e+00 
       1.057548588912e-05       1.023147912847e+01 
       1.331374792788e-05       1.270187563216e+01 
       1.676101559263e-05       1.576873875960e+01 
       2.110086845704e-05       1.957607117487e+01 
       2.656441951149e-05       2.430263030034e+01 
       3.344262277258e-05       3.017030541849e+01 
       4.210176764545e-05       3.745450342141e+01 
       5.300298517030e-05       4.649701468995e+01 
       6.672680493185e-05       5.772193129862e+01 
       8.400407037653e-05       7.165530265000e+01 
       1.057548588912e-04       8.894932916161e+01 
       1.331374792788e-04       1.104119918860e+02 
       1.676101559263e-04       1.370430479222e+02 
       2.110086845704e-04       1.700771959454e+02 
       2.656441951149e-04       2.110347631925e+02 
       3.344262277258e-04       2.617791983812e+02 
       4.210176764545e-04       3.245785640031e+02 
       5.300298517030e-04       4.021647078792e+02 
       6.672680493185e-04       4.977789813305e+02 
       8.400407037653e-04       6.151888593358e+02 
       1.057548588912e-03       7.586583748309e+02 
       1.331374792788e-03       9.328526051392e+02 
       1.676101559263e-03       1.142623027402e+03 
       2.110086845704e-03       1.392538845642e+03 
       2.656441951149e-03       1.686055062003e+03 
       3.344262277258e-03       2.024379140858e+03 
       4.210176764545e-03       2.404940123464e+03 
       5.300298517030e-03       2.819335739759e+03 
       6.672680493185e-03       3.250910803023e+03 
       8.400407037653e-03       3.672177596822e+03 
       1.057548588912e-02       4.042307715114e+03 
       1.331374792788e-02       4.305907094671e+03 
       1.676101559260e-02       4.396049566437e+03 
       2.110086828242e-02       4.248290442926e+03 
       2.656428786112e-02       3.835054766186e+03 
       3.342454281080e-02       3.219769986917e+03 
       4.150432219830e-02       2.610178701188e+03 
       4.830732493116e-02       2.261433933954e+03 
       5.324268293533e-02       2.088749928132e+03 
       5.731402371164e-02       1.980209120239e+03 
       6.094982289003e-02       1.897896074357e+03 
       6.434118157794e-02       1.825988603898e+03 
       6.758928443794e-02       1.756541988641e+03 
       7.075481845644e-02       1.685326463133e+03 
       7.387765455174e-02       1.610309578102e+03 
       7.698589670609e-02       1.530980422955e+03 
       8.010051525820e-02       1.447964077305e+03 
       8.323792199375e-02       1.362726338663e+03 
       8.641149621476e-02       1.277294399884e+03 
       8.963253684443e-02       1.193972941060e+03 
       9.291088185466e-02       1.115063002682e+03 
       9.625532540954e-02       1.042602017899e+03 
       9.967390691506e-02       9.781457353073e+02 
       1.031741160662e-01       9.226067295834e+02 
       1.067630410932e-01       8.761544175537e+02 
       1.104474775491e-01       8.381764644668e+02 
       1.142340090271e-01       8.073023745588e+02 
       1.181290674949e-01       7.814993356962e+02 
       1.221389785785e-01       7.582617425269e+02 
       1.262699956014e-01       7.349143609556e+02 
       1.305283251764e-01       7.090248347827e+02 
       1.349201464826e-01       6.788697250881e+02 
       1.394516259134e-01       6.438408733096e+02 
       1.441289284875e-01       6.046474793062e+02 
       1.489582272181e-01       5.632012477116e+02 
       1.539457115110e-01       5.221697104147e+02 
       1.590975955823e-01       4.843091595412e+02 
       1.644201278339e-01       4.517712808670e+02 
       1.699196020964e-01       4.255732141368e+02 
       1.756023716261e-01       4.053478421532e+02 
       1.814748667334e-01       3.894213749344e+02 
       1.875436169054e-01       3.752384395403e+02 
       1.938152782886e-01       3.601162136201e+02 
       2.002966673926e-01       3.421714832757e+02 
       2.069948018960e-01       3.210598308441e+02 
       2.139169494649e-01       2.981052643411e+02 
       2.210706855546e-01       2.756588211494e+02 
       2.284639612630e-01       2.559807239337e+02 
       2.361051824563e-01       2.402179701819e+02 
       2.440033016023e-01       2.279494641322e+02 
       2.521679240611e-01       2.174744786597e+02 
       2.606094310033e-01       2.067422861263e+02 
       2.693391216964e-01       1.945118668573e+02 
       2.783693786657e-01       1.810409241462e+02 
       2.877138602395e-01       1.677626081686e+02 
       2.973877263242e-01       1.561587289521e+02 
       3.074079050201e-01       1.466962296305e+02 
       3.177934100402e-01       1.386003896900e+02 
       3.285657220513e-01       1.305916534829e+02 
       3.397492513408e-01       1.219926826501e+02 
       3.513719050869e-01       1.132233647192e+02 
       3.634657906831e-01       1.052008094904e+02 
       3.760680980958e-01       9.831092790413e+01 
       3.892222207607e-01       9.207514104230e+01 
       4.029791986175e-01       8.582612219963e+01 
       4.173996026678e-01       7.952127116829e+01 
       4.325560346810e-01       7.363276487406e+01 
       4.485364997161e-01       6.834578338445e+01 
       4.654490425757e-01       6.332579684389e+01 
       4.834282570281e-01       5.835399043038e+01 
       5.026446427363e-01       5.363083819231e+01 
       5.233184217125e-01       4.923571187559e+01 
       5.457405772476e-01       4.497041777726e+01 
       5.703060511476e-01       4.083880268143e+01 
       5.975683439643e-01       3.689246332850e+01 
       6.283337998760e-01       3.302441612193e+01 
       6.638340457686e-01       2.924226545435e+01 
       7.060633665213e-01       2.548120902059e+01 
       7.584914860037e-01       2.169292927140e+01 
       8.276908476314e-01       1.779659358079e+01 
       9.271811810183e-01       1.372013293136e+01 
       1.084545158946e+00       9.533939129183e+00 
       1.334964318589e+00       5.838901767117e+00 
       1.677862056312e+00       3.371803133107e+00 
       2.112251094447e+00       1.921984207092e+00 
       2.659166386336e+00       1.086482590408e+00 
       3.347692137847e+00       6.096001867979e-01 
       4.214494703200e+00       3.397156986831e-01 
       5.305734479730e+00       1.881470099997e-01 
       6.679523964764e+00       1.036148717219e-01 
       8.409022457930e+00       5.676681071685e-02 
       1.058633206064e+01       3.095237988949e-02 
