# Matter power spectrum P(k) at redshift z=1.5
# for k=2.03696e-07 to 10.2195 h/Mpc,
# number of wavenumbers equal to 139
#    1:k (h/Mpc)              2:P (Mpc/h)^3        
       2.036957418350e-07       2.971854897786e-01 
       2.564377456703e-07       3.707042803660e-01 
       3.228359945676e-07       4.624104074083e-01 
       4.064264374030e-07       5.768031180708e-01 
       5.116605700716e-07       7.194946986589e-01 
       6.441424938762e-07       8.974858223382e-01 
       8.109273543572e-07       1.119509012433e+00 
       1.020897053519e-06       1.396457072979e+00 
       1.285233243501e-06       1.741917505123e+00 
       1.618012790326e-06       2.172839127746e+00 
       2.036957418350e-06       2.710363605910e+00 
       2.564377456703e-06       3.380862679739e+00 
       3.228359945676e-06       4.217231975285e+00 
       4.064264374030e-06       5.260504860505e+00 
       5.116605700716e-06       6.561865495290e+00 
       6.441424938762e-06       8.185159788440e+00 
       8.109273543572e-06       1.021002734649e+01 
       1.020897053519e-05       1.273580786157e+01 
       1.285233243501e-05       1.588641318090e+01 
       1.618012790326e-05       1.981640327567e+01 
       2.036957418350e-05       2.471856258230e+01 
       2.564377456703e-05       3.083334524625e+01 
       3.228359945676e-05       3.846064635798e+01 
       4.064264374030e-05       4.797446426044e+01 
       5.116605700716e-05       5.984114871111e+01 
       6.441424938762e-05       7.464208184911e+01 
       8.109273543572e-05       9.310180935540e+01 
       1.020897053519e-04       1.161228151458e+02 
       1.285233243501e-04       1.448282801979e+02 
       1.618012790326e-04       1.806142139458e+02 
       2.036957418350e-04       2.252121533553e+02 
       2.564377456703e-04       2.807629327675e+02 
       3.228359945676e-04       3.499004166438e+02 
       4.064264374030e-04       4.358409909353e+02 
       5.116605700716e-04       5.424695928098e+02 
       6.441424938762e-04       6.744066364758e+02 
       8.109273543572e-04       8.370348744864e+02 
       1.020897053519e-03       1.036462915510e+03 
       1.285233243501e-03       1.279388554120e+03 
       1.618012790326e-03       1.572757827151e+03 
       2.036957418350e-03       1.923034740024e+03 
       2.564377456703e-03       2.335024970156e+03 
       3.228359945676e-03       2.810250988756e+03 
       4.064264374030e-03       3.344759690238e+03 
       5.116605700716e-03       3.926411794953e+03 
       6.441424938762e-03       4.531919356776e+03 
       8.109273543572e-03       5.124072049871e+03 
       1.020897053519e-02       5.649745965772e+03 
       1.285233243501e-02       6.040153996924e+03 
       1.618012790318e-02       6.216438743901e+03 
       2.036957378781e-02       6.106808531141e+03 
       2.564353495013e-02       5.682633824474e+03 
       3.225607010330e-02       5.010331300515e+03 
       3.987012894952e-02       4.312363160082e+03 
       4.599837266822e-02       3.875154699088e+03 
       5.050402869038e-02       3.613872654418e+03 
       5.426657196615e-02       3.421249074153e+03 
       5.764843942584e-02       3.259455031665e+03 
       6.081489800598e-02       3.112608553563e+03 
       6.385495186303e-02       2.973086117611e+03 
       6.682263601737e-02       2.837189012150e+03 
       6.975377855729e-02       2.703424919651e+03 
       7.267381877077e-02       2.571670463344e+03 
       7.560185364607e-02       2.442670307745e+03 
       7.855290573158e-02       2.317676241446e+03 
       8.153927608886e-02       2.198150859866e+03 
       8.457139294363e-02       2.085512102935e+03 
       8.765836625073e-02       1.980915283303e+03 
       9.080836252228e-02       1.885078041583e+03 
       9.402886533994e-02       1.798157542654e+03 
       9.732686061322e-02       1.719688874709e+03 
       1.007089707816e-01       1.648593963123e+03 
       1.041815534438e-01       1.583268747382e+03 
       1.077507746145e-01       1.521753293099e+03 
       1.114226635179e-01       1.461980431913e+03 
       1.152031537252e-01       1.402080635357e+03 
       1.190981140779e-01       1.340698402499e+03 
       1.231133719391e-01       1.277252849341e+03 
       1.272547307167e-01       1.212066993335e+03 
       1.315279832036e-01       1.146307544245e+03 
       1.359389220170e-01       1.081721044149e+03 
       1.404933482428e-01       1.020213646282e+03 
       1.451970792817e-01       9.633736860197e+02 
       1.500559568175e-01       9.120620332580e+02 
       1.550758557890e-01       8.661832138515e+02 
       1.602626952144e-01       8.247119986343e+02 
       1.656224517010e-01       7.859917342724e+02 
       1.711611764626e-01       7.482469440575e+02 
       1.768850166552e-01       7.101646919284e+02 
       1.828002418434e-01       6.713319474275e+02 
       1.889132764083e-01       6.323286149160e+02 
       1.952307387268e-01       5.944060231600e+02 
       2.017594879826e-01       5.588808767404e+02 
       2.085066795301e-01       5.265271608469e+02 
       2.154798298281e-01       4.972560845784e+02 
       2.226868921113e-01       4.702341268491e+02 
       2.301363441771e-01       4.443731470164e+02 
       2.378372899733e-01       4.189241439344e+02 
       2.457995770783e-01       3.938268201699e+02 
       2.540339327270e-01       3.696017975128e+02 
       2.625521217710e-01       3.468800673544e+02 
       2.713671309420e-01       3.259224111293e+02 
       2.804933850831e-01       3.064735644185e+02 
       2.899470027242e-01       2.880235600112e+02 
       2.997461006694e-01       2.702250395740e+02 
       3.099111603322e-01       2.531002369468e+02 
       3.204654727323e-01       2.368833789069e+02 
       3.314356847998e-01       2.217014616330e+02 
       3.428524776234e-01       2.074345806578e+02 
       3.547514185708e-01       1.938666831120e+02 
       3.671740454237e-01       1.809040533314e+02 
       3.801692643658e-01       1.685933633702e+02 
       3.937951789313e-01       1.569628450259e+02 
       4.081215206134e-01       1.459381114565e+02 
       4.232329351019e-01       1.354299949223e+02 
       4.392335107434e-01       1.254149060986e+02 
       4.562531529214e-01       1.158820435879e+02 
       4.744567745180e-01       1.067793445133e+02 
       4.940579128407e-01       9.805507620806e+01 
       5.153395461855e-01       8.967692479297e+01 
       5.386870901459e-01       8.159741865847e+01 
       5.646429575493e-01       7.376181175986e+01 
       5.940013674476e-01       6.611291713398e+01 
       6.279830316521e-01       5.857736111391e+01 
       6.685798831659e-01       5.106290194486e+01 
       7.192902954278e-01       4.344660600188e+01 
       7.868109145010e-01       3.556698006967e+01 
       8.850140175820e-01       2.727530194556e+01 
       1.041676739656e+00       1.878189676322e+01 
       1.287976652607e+00       1.145472168963e+01 
       1.619709586843e+00       6.649346844719e+00 
       2.039065876976e+00       3.814227430340e+00 
       2.567031766033e+00       2.169416044036e+00 
       3.231701523109e+00       1.224491556058e+00 
       4.068471170775e+00       6.863667899859e-01 
       5.121901744041e+00       3.823114286707e-01 
       6.448092262286e+00       2.117287864619e-01 
       8.117667206586e+00       1.166423771619e-01 
       1.021953753086e+01       6.394903259775e-02 
