# Matter power spectrum P(k) at redshift z=0
# for k=2.24767e-07 to 11.2768 h/Mpc,
# number of wavenumbers equal to 139
#    1:k (h/Mpc)              2:P (Mpc/h)^3        
       2.247670435772e-07       7.453930877726e-01 
       2.829649428932e-07       9.297910487921e-01 
       3.562317572551e-07       1.159806024927e+00 
       4.484692116966e-07       1.446722913243e+00 
       5.645892870121e-07       1.804618307761e+00 
       7.107758006463e-07       2.251051118916e+00 
       8.948137175220e-07       2.807924040238e+00 
       1.126503727810e-06       3.502558126965e+00 
       1.418184169421e-06       4.369033205722e+00 
       1.785388089489e-06       5.449859876415e+00 
       2.247670435772e-06       6.798065132527e+00 
       2.829649428932e-06       8.479793915767e+00 
       3.562317572551e-06       1.057755422674e+01 
       4.484692116966e-06       1.319426496863e+01 
       5.645892870121e-06       1.645830505604e+01 
       7.107758006463e-06       2.052981138417e+01 
       8.948137175220e-06       2.560853440301e+01 
       1.126503727810e-05       3.194363622227e+01 
       1.418184169421e-05       3.984591100971e+01 
       1.785388089489e-05       4.970302535867e+01 
       2.247670435772e-05       6.199852263472e+01 
       2.829649428932e-05       7.733551636135e+01 
       3.562317572551e-05       9.646622061874e+01 
       4.484692116966e-05       1.203287377379e+02 
       5.645892870121e-05       1.500928519164e+02 
       7.107758006463e-05       1.872169648512e+02 
       8.948137175220e-05       2.335187496861e+02 
       1.126503727810e-04       2.912625658636e+02 
       1.418184169421e-04       3.632671016680e+02 
       1.785388089489e-04       4.530369497645e+02 
       2.247670435772e-04       5.649216028441e+02 
       2.829649428932e-04       7.043042337834e+02 
       3.562317572551e-04       8.778199905200e+02 
       4.484692116966e-04       1.093598873880e+03 
       5.645892870121e-04       1.361521719167e+03 
       7.107758006463e-04       1.693470002998e+03 
       8.948137175220e-04       2.103536760464e+03 
       1.126503727810e-03       2.608124117142e+03 
       1.418184169421e-03       3.225762855721e+03 
       1.785388089489e-03       3.976440941678e+03 
       2.247670435772e-03       4.880235242686e+03 
       2.829649428932e-03       5.954852377329e+03 
       3.562317572551e-03       7.211772581940e+03 
       4.484692116966e-03       8.650790161926e+03 
       5.645892870121e-03       1.025232608164e+04 
       7.107758006463e-03       1.196768302452e+04 
       8.948137175220e-03       1.370779850503e+04 
       1.126503727810e-02       1.533124256349e+04 
       1.418184169421e-02       1.663582256815e+04 
       1.785388089479e-02       1.736472296601e+04 
       2.247670389424e-02       1.725210140986e+04 
       2.829621790816e-02       1.614446372938e+04 
       3.559181886654e-02       1.420480417219e+04 
       4.397724503215e-02       1.216141367231e+04 
       5.070594625180e-02       1.094050280930e+04 
       5.565829658235e-02       1.026175095885e+04 
       5.979732476578e-02       9.792203123335e+03 
       6.351924401723e-02       9.412619237683e+03 
       6.700500792086e-02       9.070693633416e+03 
       7.035218428466e-02       8.739518068705e+03 
       7.362005766933e-02       8.404657426723e+03 
       7.684796225943e-02       8.059205825576e+03 
       8.006384117321e-02       7.701496924281e+03 
       8.328867994392e-02       7.333764241113e+03 
       8.653899272529e-02       6.961116806848e+03 
       8.982830619853e-02       6.590582492738e+03 
       9.316809071827e-02       6.230142532077e+03 
       9.656836897472e-02       5.887765555194e+03 
       1.000381274919e-01       5.570491727792e+03 
       1.035856026871e-01       5.283629922098e+03 
       1.072184843315e-01       5.030124605814e+03 
       1.109440629593e-01       4.810136333571e+03 
       1.147693382132e-01       4.620872302588e+03 
       1.187010993254e-01       4.456708504036e+03 
       1.227459853159e-01       4.309659878786e+03 
       1.269105301894e-01       4.170254544441e+03 
       1.312011969102e-01       4.028823118983e+03 
       1.356244029474e-01       3.877100736515e+03 
       1.401865395286e-01       3.709872925426e+03 
       1.448939862992e-01       3.526243448151e+03 
       1.497531227977e-01       3.330065906045e+03 
       1.547703379643e-01       3.129238458134e+03 
       1.599520387786e-01       2.933898590695e+03 
       1.653046590408e-01       2.753937312448e+03 
       1.708346692658e-01       2.596494815452e+03 
       1.765485886252e-01       2.464099846316e+03 
       1.824529998548e-01       2.353933481181e+03 
       1.885545680320e-01       2.258483229957e+03 
       1.948600641174e-01       2.167635517784e+03 
       2.013763941532e-01       2.071885794893e+03 
       2.081106350141e-01       1.965737524046e+03 
       2.150700776225e-01       1.849836834803e+03 
       2.222622785769e-01       1.730581848042e+03 
       2.296951212088e-01       1.617109826529e+03 
       2.373768871892e-01       1.517036703242e+03 
       2.453163399719e-01       1.433022035370e+03 
       2.535228215944e-01       1.361772821233e+03 
       2.620063646944e-01       1.295985951931e+03 
       2.707778220516e-01       1.228428520633e+03 
       2.798490165808e-01       1.156035153617e+03 
       2.892329155182e-01       1.081377607446e+03 
       2.989438336210e-01       1.010320903474e+03 
       3.089976716335e-01       9.475370273644e+02 
       3.194121981625e-01       8.932404020088e+02 
       3.302073856306e-01       8.435163121838e+02 
       3.414058143715e-01       7.938748087412e+02 
       3.530331635346e-01       7.430224397359e+02 
       3.651188138054e-01       6.934059063252e+02 
       3.776965957679e-01       6.480973333893e+02 
       3.908057302090e-01       6.074436299798e+02 
       4.044920245808e-01       5.690887085015e+02 
       4.188094160128e-01       5.310694411917e+02 
       4.338219902479e-01       4.939761958950e+02 
       4.496066651080e-01       4.594306374911e+02 
       4.662568191507e-01       4.274038853982e+02 
       4.838872928306e-01       3.965245452531e+02 
       5.026414296009e-01       3.664707612538e+02 
       5.227012298203e-01       3.379937986976e+02 
       5.443023988465e-01       3.109405435490e+02 
       5.677573579621e-01       2.846475369031e+02 
       5.934917309471e-01       2.592754215470e+02 
       6.221046984348e-01       2.347259177813e+02 
       6.544739234309e-01       2.106302641436e+02 
       6.919489809649e-01       1.869028428216e+02 
       7.367333111773e-01       1.631663439025e+02 
       7.926993789962e-01       1.390559939827e+02 
       8.672654795811e-01       1.140391641801e+02 
       9.758058297377e-01       8.763789161629e+01 
       1.149056501677e+00       6.050156032694e+01 
       1.421170942930e+00       3.703218449844e+01 
       1.787267752415e+00       2.158630613860e+01 
       2.250007545649e+00       1.243009855871e+01 
       2.832591589782e+00       7.094635814106e+00 
       3.566021533577e+00       4.017236595484e+00 
       4.489355127625e+00       2.258348266166e+00 
       5.651763252736e+00       1.261263347961e+00 
       7.115148380314e+00       7.002018714549e-01 
       8.957441104663e+00       3.866022789713e-01 
       1.127675023131e+01       2.123845487193e-01 
