# Matter power spectrum P(k) at redshift z=1
# for k=2.31821e-07 to 11.631 h/Mpc,
# number of wavenumbers equal to 139
#    1:k (h/Mpc)              2:P (Mpc/h)^3        
       2.318208568018e-07       2.547179432525e-01 
       2.918451676117e-07       3.185880920773e-01 
       3.674112978157e-07       3.984735864789e-01 
       4.625434194005e-07       4.983902506593e-01 
       5.823076647415e-07       6.233608706397e-01 
       7.330819166256e-07       7.796676883673e-01 
       9.228954537667e-07       9.751682081906e-01 
       1.161856539176e-06       1.219690191037e+00 
       1.462690722028e-06       1.525525692244e+00 
       1.841418519557e-06       1.908048977953e+00 
       2.318208568018e-06       2.386489380506e+00 
       2.918451676117e-06       2.984897942662e+00 
       3.674112978157e-06       3.733356438540e+00 
       4.625434194005e-06       4.669489538634e+00 
       5.823076647415e-06       5.840356117116e+00 
       7.330819166256e-06       7.304814740027e+00 
       9.228954537667e-06       9.136482172579e+00 
       1.161856539176e-05       1.142743348634e+01 
       1.462690722028e-05       1.429282948118e+01 
       1.841418519557e-05       1.787670346902e+01 
       2.318208568018e-05       2.235919720176e+01 
       2.918451676117e-05       2.796560743818e+01 
       3.674112978157e-05       3.497769351450e+01 
       4.625434194005e-05       4.374780555477e+01 
       5.823076647415e-05       5.471652622148e+01 
       7.330819166256e-05       6.843467855745e+01 
       9.228954537667e-05       8.559073863392e+01 
       1.161856539176e-04       1.070448979947e+02 
       1.462690722028e-04       1.338712276775e+02 
       1.841418519557e-04       1.674095567395e+02 
       2.318208568018e-04       2.093286990447e+02 
       2.918451676117e-04       2.617023666297e+02 
       3.674112978157e-04       3.270982075557e+02 
       4.625434194005e-04       4.086785140794e+02 
       5.823076647415e-04       5.103079620633e+02 
       7.330819166256e-04       6.366595217989e+02 
       9.228954537667e-04       7.933054736471e+02 
       1.161856539176e-03       9.867750192411e+02 
       1.462690722028e-03       1.224539250455e+03 
       1.841418519557e-03       1.514826512901e+03 
       2.318208568018e-03       1.866131472042e+03 
       2.918451676117e-03       2.286334658906e+03 
       3.674112978157e-03       2.781280768665e+03 
       4.625434194005e-03       3.352680588535e+03 
       5.823076647415e-03       3.985847338391e+03 
       7.330819166256e-03       4.678316495373e+03 
       9.228954537667e-03       5.391081074292e+03 
       1.161856539176e-02       6.070165992478e+03 
       1.462690722028e-02       6.636432928183e+03 
       1.841418519541e-02       6.987115262413e+03 
       2.318208503252e-02       7.012862576123e+03 
       2.918415973745e-02       6.644996195760e+03 
       3.670313571435e-02       5.936995448087e+03 
       4.526209479492e-02       5.169532268951e+03 
       5.202761924676e-02       4.703055701842e+03 
       5.703484983199e-02       4.434404385367e+03 
       6.123744357699e-02       4.243752048096e+03 
       6.502503518038e-02       4.087282503737e+03 
       6.857701401684e-02       3.945451914105e+03 
       7.199068909527e-02       3.808114223081e+03 
       7.532544452198e-02       3.669797620131e+03 
       7.862081023897e-02       3.527869936045e+03 
       8.190494219545e-02       3.381679643866e+03 
       8.519903183860e-02       3.232050375958e+03 
       8.851978628969e-02       3.080895100686e+03 
       9.188091218661e-02       2.930856576116e+03 
       9.529404859153e-02       2.784944322766e+03 
       9.876937777448e-02       2.646169399606e+03 
       1.023160386885e-01       2.517195106999e+03 
       1.059424147151e-01       2.400027259178e+03 
       1.096563385053e-01       2.295767023613e+03 
       1.134652404925e-01       2.204445855038e+03 
       1.173762581087e-01       2.124959568114e+03 
       1.213963169405e-01       2.055119863261e+03 
       1.255321914478e-01       1.991844353750e+03 
       1.297905505550e-01       1.931503270041e+03 
       1.341779919222e-01       1.870421213727e+03 
       1.387010677156e-01       1.805490034054e+03 
       1.433663040337e-01       1.734788543583e+03 
       1.481802157094e-01       1.658050689205e+03 
       1.531493179185e-01       1.576812838957e+03 
       1.582801358289e-01       1.494130515416e+03 
       1.635792134070e-01       1.413881268747e+03 
       1.690531224145e-01       1.339812788388e+03 
       1.747084725827e-01       1.274588114658e+03 
       1.805519239199e-01       1.219082162890e+03 
       1.865902020862e-01       1.172117983000e+03 
       1.928301177605e-01       1.130745797564e+03 
       1.992785909123e-01       1.091074723689e+03 
       2.059426808894e-01       1.049517027844e+03 
       2.128296232368e-01       1.004074773241e+03 
       2.199468741789e-01       9.551136991637e+02 
       2.273021637372e-01       9.051598986157e+02 
       2.349035585233e-01       8.577089321792e+02 
       2.427595353573e-01       8.155930676562e+02 
       2.508790670368e-01       7.797026672335e+02 
       2.592717218200e-01       7.486652536903e+02 
       2.679477785392e-01       7.196476076280e+02 
       2.769183597253e-01       6.899401106160e+02 
       2.861955857652e-01       6.584874869536e+02 
       2.957927539507e-01       6.263680023454e+02 
       3.057245474015e-01       5.958255495719e+02 
       3.160072803156e-01       5.685530032130e+02 
       3.266591879630e-01       5.445176797293e+02 
       3.377007724452e-01       5.221772594974e+02 
       3.491552187567e-01       4.998701114284e+02 
       3.610489004514e-01       4.771958699490e+02 
       3.734120007798e-01       4.551211640863e+02 
       3.862792843025e-01       4.347543585772e+02 
       3.996910669217e-01       4.161405069955e+02 
       4.136944508610e-01       3.983673283748e+02 
       4.283449183103e-01       3.807460040326e+02 
       4.437084179659e-01       3.635352723443e+02 
       4.598641403188e-01       3.473034306023e+02 
       4.769082734086e-01       3.319800391562e+02 
       4.949591836527e-01       3.170540918956e+02 
       5.141647170155e-01       3.024291436605e+02 
       5.347127395877e-01       2.883503648470e+02 
       5.568467784483e-01       2.747120766879e+02 
       5.808899738307e-01       2.612615805575e+02 
       6.072831223929e-01       2.480219413516e+02 
       6.366477313323e-01       2.348891088607e+02 
       6.698958935137e-01       2.216674497764e+02 
       7.084333994985e-01       2.082075916199e+02 
       7.545620911163e-01       1.942051384116e+02 
       8.123415342074e-01       1.792405374453e+02 
       8.895783554270e-01       1.626228658692e+02 
       1.002487849804e+00       1.432906582988e+02 
       1.183209298282e+00       1.202371011652e+02 
       1.465588095962e+00       9.530490790298e+01 
       1.843410132284e+00       7.309347594670e+01 
       2.320691767079e+00       5.456515221304e+01 
       2.921577772915e+00       3.940424093585e+01 
       3.678048500832e+00       2.741951004592e+01 
       4.630388723509e+00       1.839299737284e+01 
       5.829314030511e+00       1.194313590959e+01 
       7.338671566339e+00       7.549157207634e+00 
       9.238840123675e+00       4.670905017408e+00 
       1.163101060720e+01       2.842789986817e+00 
