# Matter power spectrum P(k) at redshift z=0
# for k=7.92673e-06 to 12.5806 h/Mpc,
# number of wavenumbers equal to 124
#    1:k (h/Mpc)              2:P (Mpc/h)^3        
       7.926725799520e-06       1.310421926046e+02 
       9.979156541340e-06       1.634593076014e+02 
       1.256301375816e-05       2.038953899084e+02 
       1.581589726887e-05       2.543336766537e+02 
       1.991103498211e-05       3.172475463795e+02 
       2.506650791410e-05       3.957212931664e+02 
       3.155686379800e-05       4.936002705680e+02 
       3.972773775183e-05       6.156773296214e+02 
       5.001425860888e-05       7.679234694878e+02 
       6.296422111476e-05       9.577721032397e+02 
       7.926725799520e-05       1.194466605826e+03 
       9.979156541340e-05       1.489480209295e+03 
       1.256301375816e-04       1.857013853421e+03 
       1.581589726887e-04       2.314568065897e+03 
       1.991103498211e-04       2.883565544495e+03 
       2.506650791410e-04       3.589968045905e+03 
       3.155686379800e-04       4.464781125047e+03 
       3.972773775183e-04       5.544287033903e+03 
       5.001425860888e-04       6.869815111253e+03 
       6.296422111476e-04       8.486837501486e+03 
       7.926725799520e-04       1.044295626450e+04 
       9.979156541340e-04       1.278370627784e+04 
       1.256301375816e-03       1.554498086447e+04 
       1.581589726887e-03       1.874202089924e+04 
       1.991103498211e-03       2.235460819875e+04 
       2.506650791410e-03       2.631007004976e+04 
       3.155686379800e-03       3.046733793431e+04 
       3.972773775183e-03       3.459853577434e+04 
       5.001425860888e-03       3.838418523555e+04 
       6.296422111476e-03       4.141402920029e+04 
       7.926725799520e-03       4.318386115550e+04 
       9.979156541340e-03       4.314845346095e+04 
       1.256301375816e-02       4.076643713674e+04 
       1.581589726669e-02       3.570922829247e+04 
       1.991103040614e-02       2.821517108639e+04 
       2.506505742174e-02       1.959557223154e+04 
       3.145877824949e-02       1.225413707169e+04 
       3.809223975352e-02       8.447971329211e+03 
       4.293456942426e-02       7.307273413097e+03 
       4.667988518678e-02       6.958100408697e+03 
       4.991099131499e-02       6.838520187473e+03 
       5.286669312081e-02       6.764475164740e+03 
       5.566339140172e-02       6.653002535218e+03 
       5.836689985306e-02       6.464481288267e+03 
       6.101860781388e-02       6.181554897063e+03 
       6.364670833200e-02       5.806735815676e+03 
       6.627165775319e-02       5.354811790077e+03 
       6.890909215159e-02       4.851150438428e+03 
       7.157150255815e-02       4.326193988932e+03 
       7.426925418137e-02       3.811585180028e+03 
       7.701123600790e-02       3.335461252072e+03 
       7.980529090606e-02       2.920198413617e+03 
       8.265850950523e-02       2.579253202786e+03 
       8.557743628379e-02       2.318695405382e+03 
       8.856821719502e-02       2.137546696325e+03 
       9.163670722475e-02       2.028819697118e+03 
       9.478854978073e-02       1.980927878107e+03 
       9.802923583452e-02       1.977740724959e+03 
       1.013641482337e-01       1.998849244067e+03 
       1.047985949935e-01       2.020147217296e+03 
       1.083378343240e-01       2.017017574578e+03 
       1.119870934563e-01       1.969154986564e+03 
       1.157515828634e-01       1.866665868719e+03 
       1.196365071683e-01       1.713297092179e+03 
       1.236470738242e-01       1.526612422343e+03 
       1.277885005197e-01       1.331885123882e+03 
       1.320660221761e-01       1.155187406395e+03 
       1.364848983492e-01       1.015826452133e+03 
       1.410504218143e-01       9.229387394941e+02 
       1.457679290927e-01       8.751474017952e+02 
       1.506428136636e-01       8.620608139071e+02 
       1.556805425951e-01       8.662910146027e+02 
       1.608866773251e-01       8.666658638188e+02 
       1.662668993180e-01       8.430276230923e+02 
       1.718270413333e-01       7.872655687358e+02 
       1.775731250573e-01       7.073342630389e+02 
       1.835114058896e-01       6.214965623532e+02 
       1.896484257383e-01       5.478961150503e+02 
       1.959910747819e-01       4.974213382683e+02 
       2.025466633088e-01       4.714104112559e+02 
       2.093230049636e-01       4.609181914332e+02 
       2.163285130354e-01       4.511594698522e+02 
       2.235723118374e-01       4.299229248093e+02 
       2.310643657823e-01       3.945975862638e+02 
       2.388156294925e-01       3.530922098600e+02 
       2.468382232643e-01       3.174344214829e+02 
       2.551456394871e-01       2.938224250968e+02 
       2.637529873361e-01       2.797636326109e+02 
       2.726772853423e-01       2.676838863674e+02 
       2.819378145277e-01       2.506308777078e+02 
       2.915565490070e-01       2.287862390505e+02 
       3.015586867613e-01       2.077295496384e+02 
       3.119733114314e-01       1.919309847119e+02 
       3.228342275417e-01       1.802226667111e+02 
       3.341810282769e-01       1.685086509416e+02 
       3.460604795207e-01       1.549940505278e+02 
       3.585283407222e-01       1.415354337934e+02 
       3.716517996181e-01       1.302391427363e+02 
       3.855127863309e-01       1.207071536276e+02 
       4.002125746910e-01       1.108565333411e+02 
       4.158783141571e-01       1.008588070759e+02 
       4.326725381267e-01       9.211804641805e+01 
       4.508074071644e-01       8.395912023804e+01 
       4.705667603823e-01       7.580437754868e+01 
       4.923415878571e-01       6.819378346620e+01 
       5.166897072096e-01       6.091001338933e+01 
       5.444415981170e-01       5.379422710755e+01 
       5.769001366723e-01       4.690849975353e+01 
       6.162458067468e-01       4.008011079997e+01 
       6.664266190155e-01       3.322181453859e+01 
       7.352475638209e-01       2.621350773652e+01 
       8.390783156413e-01       1.901823956611e+01 
       1.007392435476e+00       1.214421827491e+01 
       1.258388275391e+00       6.990915004248e+00 
       1.583805711167e+00       3.923528624586e+00 
       1.993889620407e+00       2.186872829170e+00 
       2.510158305992e+00       1.211824542416e+00 
       3.160102079039e+00       6.679977323933e-01 
       3.978332811165e+00       3.664508254382e-01 
       5.008424272551e+00       2.001273227175e-01 
       6.305232589761e+00       1.088418763582e-01 
       7.937817534522e+00       5.896579533674e-02 
       9.993120208396e+00       3.182807168211e-02 
       1.258059297346e+01       1.712051150983e-02 
