# Matter power spectrum P(k) at redshift z=0
# for k=2.09827e-07 to 10.527 h/Mpc,
# number of wavenumbers equal to 139
#    1:k (h/Mpc)              2:P (Mpc/h)^3        
       2.098271979565e-07       8.723743399341e-01 
       2.641567915930e-07       1.088185369173e+00 
       3.325536976344e-07       1.357384488517e+00 
       4.186603007381e-07       1.693179030711e+00 
       5.270620915085e-07       2.112043604191e+00 
       6.635318605935e-07       2.634528362572e+00 
       8.353371208362e-07       3.286267226195e+00 
       1.051627128836e-06       4.099235519676e+00 
       1.323920116223e-06       5.113318725723e+00 
       1.666716677499e-06       6.378269318680e+00 
       2.098271979565e-06       7.956147675557e+00 
       2.641567915930e-06       9.924366810696e+00 
       3.325536976344e-06       1.237949029041e+01 
       4.186603007381e-06       1.544196961503e+01 
       5.270620915085e-06       1.926205340686e+01 
       6.635318605935e-06       2.402715814664e+01 
       8.353371208362e-06       2.997106174332e+01 
       1.051627128836e-05       3.738537032116e+01 
       1.323920116223e-05       4.663381948624e+01 
       1.666716677499e-05       5.817010911948e+01 
       2.098271979565e-05       7.256014155271e+01 
       2.641567915930e-05       9.050974403105e+01 
       3.325536976344e-05       1.128992155124e+02 
       4.186603007381e-05       1.408263532013e+02 
       5.270620915085e-05       1.756599918396e+02 
       6.635318605935e-05       2.191065291596e+02 
       8.353371208362e-05       2.732924007590e+02 
       1.051627128836e-04       3.408659636971e+02 
       1.323920116223e-04       4.251226498568e+02 
       1.666716677499e-04       5.301573499943e+02 
       2.098271979565e-04       6.610474059520e+02 
       2.641567915930e-04       8.240677002841e+02 
       3.325536976344e-04       1.026935321707e+03 
       4.186603007381e-04       1.279074521693e+03 
       5.270620915085e-04       1.591883597293e+03 
       6.635318605935e-04       1.978975323697e+03 
       8.353371208362e-04       2.456346310234e+03 
       1.051627128836e-03       3.042377248877e+03 
       1.323920116223e-03       3.757447996679e+03 
       1.666716677499e-03       4.622897206357e+03 
       2.098271979565e-03       5.659095330511e+03 
       2.641567915930e-03       6.882188092988e+03 
       3.325536976344e-03       8.299251669993e+03 
       4.186603007381e-03       9.901801366890e+03 
       5.270620915085e-03       1.162321687018e+04 
       6.635318605935e-03       1.344825819880e+04 
       8.353371208362e-03       1.523962492226e+04 
       1.051627128836e-02       1.682658327744e+04 
       1.323920116223e-02       1.797734730530e+04 
       1.666716677495e-02       1.841250701252e+04 
       2.098271959004e-02       1.786424012963e+04 
       2.641553070104e-02       1.621892239480e+04 
       3.323568670324e-02       1.373819037638e+04 
       4.123598876826e-02       1.127557539573e+04 
       4.791072601332e-02       9.862734141687e+03 
       5.276450166247e-02       9.146883689593e+03 
       5.677838972026e-02       8.686016077183e+03 
       6.036754276857e-02       8.329944832265e+03 
       6.371792169564e-02       8.015899563072e+03 
       6.692832158147e-02       7.712590130199e+03 
       7.005813914094e-02       7.403643360304e+03 
       7.314646841299e-02       7.081481100592e+03 
       7.622090543432e-02       6.744546885978e+03 
       7.930206600447e-02       6.395698680523e+03 
       8.240610071835e-02       6.040979522482e+03 
       8.554618739669e-02       5.688473429584e+03 
       8.873346319095e-02       5.347168131547e+03 
       9.197763152659e-02       5.025850069148e+03 
       9.528737113283e-02       4.732102414372e+03 
       9.867061963862e-02       4.471480002816e+03 
       1.021347748483e-01       4.246912984736e+03 
       1.056868403177e-01       4.058359504764e+03 
       1.093335322137e-01       3.902708706646e+03 
       1.130813586179e-01       3.773945984966e+03 
       1.169366788115e-01       3.663623624014e+03 
       1.209057477748e-01       3.561710509760e+03 
       1.249947496367e-01       3.457872818898e+03 
       1.292098228233e-01       3.343126728476e+03 
       1.335570790038e-01       3.211606815278e+03 
       1.380426174906e-01       3.061987499673e+03 
       1.426725364679e-01       2.898016160183e+03 
       1.474529422252e-01       2.727786976777e+03 
       1.523899574544e-01       2.561797467489e+03 
       1.574897295870e-01       2.410300263644e+03 
       1.627584401010e-01       2.280723673454e+03 
       1.682023156938e-01       2.175849756539e+03 
       1.738276422010e-01       2.093138124443e+03 
       1.796407821251e-01       2.025333577271e+03 
       1.856481966310e-01       1.962388280338e+03 
       1.918564728616e-01       1.894523243743e+03 
       1.982723574274e-01       1.815676804729e+03 
       2.049027969416e-01       1.725883927668e+03 
       2.117549865014e-01       1.631125366453e+03 
       2.188364270784e-01       1.540396181686e+03 
       2.261549928782e-01       1.461433903021e+03 
       2.337190098779e-01       1.397287424119e+03 
       2.415373469713e-01       1.345253276985e+03 
       2.496195214577e-01       1.298541307859e+03 
       2.579758210329e-01       1.250010341054e+03 
       2.666174450089e-01       1.196194448911e+03 
       2.755566682503e-01       1.139059288992e+03 
       2.848070323133e-01       1.084041120266e+03 
       2.943835696074e-01       1.035810143134e+03 
       3.043030681499e-01       9.950260946978e+02 
       3.145843868331e-01       9.583630289838e+02 
       3.252488342624e-01       9.215810646599e+02 
       3.363206284943e-01       8.831066240806e+02 
       3.478274608553e-01       8.448949243347e+02 
       3.598011951725e-01       8.098155254708e+02 
       3.722787452403e-01       7.785008014507e+02 
       3.853031898330e-01       7.490381971885e+02 
       3.989252086215e-01       7.195462322684e+02 
       4.132049580769e-01       6.902981978288e+02 
       4.282145606264e-01       6.627021643635e+02 
       4.440414643195e-01       6.369285173882e+02 
       4.607930637162e-01       6.118572993835e+02 
       4.786031905722e-01       5.870544027724e+02 
       4.976414495190e-01       5.630849897945e+02 
       5.181270122428e-01       5.399128688433e+02 
       5.403496384587e-01       5.169459413290e+02 
       5.647028740901e-01       4.941832065496e+02 
       5.917387094574e-01       4.715253584159e+02 
       6.222620790858e-01       4.485407966887e+02 
       6.575039418711e-01       4.249650580998e+02 
       6.994604764871e-01       4.002094411697e+02 
       7.516110263708e-01       3.734665260211e+02 
       8.205597659127e-01       3.433630626802e+02 
       9.199114751590e-01       3.076552564366e+02 
       1.077334080504e+00       2.635270232930e+02 
       1.327310767485e+00       2.124940311848e+02 
       1.668451784524e+00       1.642450421804e+02 
       2.100410168388e+00       1.229878421298e+02 
       2.644259572293e+00       8.894598580860e+01 
       3.328925570858e+00       6.208751453653e+01 
       4.190868995124e+00       4.194937146002e+01 
       5.275991475462e+00       2.755795311661e+01 
       6.642079740869e+00       1.768749148894e+01 
       8.361882972943e+00       1.114201954821e+01 
       1.052698696509e+01       6.916426231607e+00 
