# Matter power spectrum P(k) at redshift z=2
# for k=2.29735e-07 to 11.5262 h/Mpc,
# number of wavenumbers equal to 139
#    1:k (h/Mpc)              2:P (Mpc/h)^3        
       2.297351482275e-07       1.504008930085e-01 
       2.892194160859e-07       1.876075943611e-01 
       3.641056724948e-07       2.340186201393e-01 
       4.583818836821e-07       2.919109684690e-01 
       5.770686016735e-07       3.641249290833e-01 
       7.264863269953e-07       4.542034324553e-01 
       9.145920983754e-07       5.665658713647e-01 
       1.151403234071e-06       7.067249229568e-01 
       1.449530790594e-06       8.815570085680e-01 
       1.824851147457e-06       1.099639660881e+00 
       2.297351482275e-06       1.371672348180e+00 
       2.892194160859e-06       1.711001401950e+00 
       3.641056724948e-06       2.134274799311e+00 
       4.583818836821e-06       2.662258918281e+00 
       5.770686016735e-06       3.320857329487e+00 
       7.264863269953e-06       4.142381587137e+00 
       9.145920983754e-06       5.167136329987e+00 
       1.151403234071e-05       6.445396378919e+00 
       1.449530790594e-05       8.039872697113e+00 
       1.824851147457e-05       1.002878787697e+01 
       2.297351482275e-05       1.250971148862e+01 
       2.892194160859e-05       1.560434229457e+01 
       3.641056724948e-05       1.946446968224e+01 
       4.583818836821e-05       2.427940232194e+01 
       5.770686016735e-05       3.028521967489e+01 
       7.264863269953e-05       3.777628272513e+01 
       9.145920983754e-05       4.711953445163e+01 
       1.151403234071e-04       5.877222386989e+01 
       1.449530790594e-04       7.330379099867e+01 
       1.824851147457e-04       9.142272831719e+01 
       2.297351482275e-04       1.140092379000e+02 
       2.892194160859e-04       1.421543353152e+02 
       3.641056724948e-04       1.772055429384e+02 
       4.583818836821e-04       2.208182101548e+02 
       5.770686016735e-04       2.750095044245e+02 
       7.264863269953e-04       3.422091602955e+02 
       9.145920983754e-04       4.252978181953e+02 
       1.151403234071e-03       5.276216362750e+02 
       1.449530790594e-03       6.529688445750e+02 
       1.824851147457e-03       8.054740388602e+02 
       2.297351482275e-03       9.893645182631e+02 
       2.892194160859e-03       1.208458606643e+03 
       3.641056724948e-03       1.465413550013e+03 
       4.583818836821e-03       1.760634357904e+03 
       5.770686016735e-03       2.088443147346e+03 
       7.264863269953e-03       2.443099928991e+03 
       9.145920983754e-03       2.805570238989e+03 
       1.151403234071e-02       3.147579290399e+03 
       1.449530790594e-02       3.428190898805e+03 
       1.824851147443e-02       3.594821369537e+03 
       2.297351423442e-02       3.592251574891e+03 
       2.892160989307e-02       3.387086788611e+03 
       3.637461178224e-02       3.009405304860e+03 
       4.488275643736e-02       2.605434891106e+03 
       5.163670069011e-02       2.361471605763e+03 
       5.662723639544e-02       2.222334531001e+03 
       6.081078177151e-02       2.124236272643e+03 
       6.457878556028e-02       2.044034918683e+03 
       6.811105519391e-02       1.971474194366e+03 
       7.150495825321e-02       1.901253514267e+03 
       7.481984082707e-02       1.830524941197e+03 
       7.809517032142e-02       1.757923973823e+03 
       8.135903698151e-02       1.683116705785e+03 
       8.463256959003e-02       1.606533341547e+03 
       8.793241699940e-02       1.529165511104e+03 
       9.127223176987e-02       1.452378279804e+03 
       9.466360243108e-02       1.377721725357e+03 
       9.811666356413e-02       1.306742215822e+03 
       1.016405086462e-01       1.240803361413e+03 
       1.052434772679e-01       1.180927870564e+03 
       1.089333595460e-01       1.127672248927e+03 
       1.127175442967e-01       1.081044016416e+03 
       1.166031279848e-01       1.040469662747e+03 
       1.205969956730e-01       1.004822739324e+03 
       1.247058815819e-01       9.725228826255e+02 
       1.289364145607e-01       9.417147135197e+02 
       1.332951522686e-01       9.105251834434e+02 
       1.377886068756e-01       8.773759978002e+02 
       1.424232644366e-01       8.412970589887e+02 
       1.472055996504e-01       8.021604538162e+02 
       1.521420874273e-01       7.607506924377e+02 
       1.572392124963e-01       7.186179573108e+02 
       1.625034781615e-01       6.777245714113e+02 
       1.679414152342e-01       6.399647090101e+02 
       1.735595921250e-01       6.066835457268e+02 
       1.793646270420e-01       5.783232669506e+02 
       1.853632032283e-01       5.542915970226e+02 
       1.915620881544e-01       5.331052759970e+02 
       1.979681575736e-01       5.128119207457e+02 
       2.045884253477e-01       4.916156977969e+02 
       2.114300799489e-01       4.685180053998e+02 
       2.185005285686e-01       4.436981473071e+02 
       2.258074497933e-01       4.184095347830e+02 
       2.333588558849e-01       3.943897314243e+02 
       2.411631658034e-01       3.730513473790e+02 
       2.492292902876e-01       3.548450868815e+02 
       2.575667305450e-01       3.390970541695e+02 
       2.661856924479e-01       3.244058360097e+02 
       2.750972185985e-01       3.094274440475e+02 
       2.843133412530e-01       2.936310039497e+02 
       2.938472599314e-01       2.775367829315e+02 
       3.037135486473e-01       2.622457113237e+02 
       3.139283991497e-01       2.485975592481e+02 
       3.245099085145e-01       2.365868716062e+02 
       3.354784220030e-01       2.254603409259e+02 
       3.468569455813e-01       2.143963575829e+02 
       3.586716472210e-01       2.031863396606e+02 
       3.709524725868e-01       1.922964005440e+02 
       3.837339097725e-01       1.822736493463e+02 
       3.970559505393e-01       1.731494213603e+02 
       4.109653139029e-01       1.644785863803e+02 
       4.255170248036e-01       1.559158350124e+02 
       4.407764806527e-01       1.475810435452e+02 
       4.568221994652e-01       1.397562613294e+02 
       4.737495380280e-01       1.324139508702e+02 
       4.916758195956e-01       1.253022947749e+02 
       5.107475581498e-01       1.183696801138e+02 
       5.311508846224e-01       1.117407907571e+02 
       5.531270124359e-01       1.053703252021e+02 
       5.769959112488e-01       9.913488904992e+01 
       6.031938896678e-01       9.305217115392e+01 
       6.323358504192e-01       8.708244989950e+01 
       6.653237002180e-01       8.114105791234e+01 
       7.035465941275e-01       7.517762630018e+01 
       7.492772435435e-01       6.907641034701e+01 
       8.065197970247e-01       6.269167190269e+01 
       8.829658095009e-01       5.579336353757e+01 
       9.945815499157e-01       4.806692895431e+01 
       1.173094392029e+00       3.934113131016e+01 
       1.452449370890e+00       3.056422767009e+01 
       1.826807455301e+00       2.333422501994e+01 
       2.299788847824e+00       1.766288315910e+01 
       2.895262551309e+00       1.316565597537e+01 
       3.644919599632e+00       9.601462277562e+00 
       4.588681907924e+00       6.817572741465e+00 
       5.776808260525e+00       4.697713965305e+00 
       7.272570718238e+00       3.137026875670e+00 
       9.155624086259e+00       2.032556244242e+00 
       1.152624782303e+01       1.282179948849e+00 
