# Matter power spectrum P(k) at redshift z=0
# for k=2.08716e-07 to 10.4712 h/Mpc,
# number of wavenumbers equal to 139
#    1:k (h/Mpc)              2:P (Mpc/h)^3        
       2.087162170319e-07       1.259350810148e+00 
       2.627581494750e-07       1.569266579082e+00 
       3.307929115301e-07       1.955450042490e+00 
       4.164436023666e-07       2.436670045336e+00 
       5.242714335984e-07       3.036314288359e+00 
       6.600186304348e-07       3.783525989342e+00 
       8.309142261119e-07       4.714620265941e+00 
       1.046059034274e-06       5.874849077310e+00 
       1.316910300484e-06       7.320600499217e+00 
       1.657891842333e-06       9.122139216391e+00 
       2.087162170319e-06       1.136702141204e+01 
       2.627581494750e-06       1.416435000805e+01 
       3.307929115301e-06       1.765007703010e+01 
       4.164436023666e-06       2.199361073606e+01 
       5.242714335984e-06       2.740604849467e+01 
       6.600186304348e-06       3.415043529970e+01 
       8.309142261119e-06       4.255454600546e+01 
       1.046059034274e-05       5.302681156447e+01 
       1.316910300484e-05       6.607616142175e+01 
       1.657891842333e-05       8.233674271370e+01 
       2.087162170319e-05       1.025987103398e+02 
       2.627581494750e-05       1.278465698991e+02 
       3.307929115301e-05       1.593069085381e+02 
       4.164436023666e-05       1.985077773762e+02 
       5.242714335984e-05       2.473525011242e+02 
       6.600186304348e-05       3.082112851375e+02 
       8.309142261119e-05       3.840346469571e+02 
       1.046059034274e-04       4.784933561503e+02 
       1.316910300484e-04       5.961500788563e+02 
       1.657891842333e-04       7.426679984221e+02 
       2.087162170319e-04       9.250607841570e+02 
       2.627581494750e-04       1.151985536761e+03 
       3.307929115301e-04       1.434074617229e+03 
       4.164436023666e-04       1.784292718936e+03 
       5.242714335984e-04       2.218292850150e+03 
       6.600186304348e-04       2.754731084415e+03 
       8.309142261119e-04       3.415477553231e+03 
       1.046059034274e-03       4.225586700978e+03 
       1.316910300484e-03       5.212725503479e+03 
       1.657891842333e-03       6.405687653461e+03 
       2.087162170319e-03       7.831687075537e+03 
       2.627581494750e-03       9.511836424222e+03 
       3.307929115301e-03       1.145447837939e+04 
       4.164436023666e-03       1.364629456253e+04 
       5.242714335984e-03       1.604050935300e+04 
       6.600186304348e-03       1.854311415150e+04 
       8.309142261119e-03       2.099844747000e+04 
       1.046059034274e-02       2.317577207899e+04 
       1.316910300484e-02       2.476365117584e+04 
       1.657891842328e-02       2.538843329893e+04 
       2.087162146471e-02       2.469282031400e+04 
       2.627564940444e-02       2.252352025829e+04 
       3.305803523850e-02       1.922245838422e+04 
       4.098352268172e-02       1.592478398129e+04 
       4.754158686303e-02       1.401146992596e+04 
       5.232140041934e-02       1.301298877080e+04 
       5.628289630201e-02       1.235186625571e+04 
       5.982936120243e-02       1.183018529604e+04 
       6.314215715987e-02       1.136475434084e+04 
       6.631793113759e-02       1.091419514383e+04 
       6.941491575219e-02       1.045709577611e+04 
       7.247150214903e-02       9.983835198148e+03 
       7.551482572797e-02       9.492821038896e+03 
       7.856518013276e-02       8.988277930459e+03 
       8.163847820862e-02       8.478553550518e+03 
       8.474771408731e-02       7.974560701332e+03 
       8.790387722160e-02       7.488252212657e+03 
       9.111654803363e-02       7.031156589283e+03 
       9.439429959589e-02       6.613058576094e+03 
       9.774497628251e-02       6.240912760507e+03 
       1.011758916231e-01       5.918055467373e+03 
       1.046939714540e-01       5.643748250992e+03 
       1.083058590269e-01       5.413074478367e+03 
       1.120179930271e-01       5.217226660819e+03 
       1.158366659049e-01       5.044259372182e+03 
       1.197680676613e-01       4.880394755555e+03 
       1.238183187616e-01       4.711902996624e+03 
       1.279934948817e-01       4.527401909030e+03 
       1.322996455512e-01       4.320159846625e+03 
       1.367428083300e-01       4.089764251800e+03 
       1.413290198695e-01       3.842496718855e+03 
       1.460643250236e-01       3.590043974305e+03 
       1.509547850523e-01       3.346712909644e+03 
       1.560064858865e-01       3.125866365797e+03 
       1.612255473697e-01       2.936566684808e+03 
       1.666181343669e-01       2.781296474762e+03 
       1.721904706089e-01       2.655289475540e+03 
       1.779488561279e-01       2.547708837538e+03 
       1.838996891336e-01       2.444673625740e+03 
       1.900494931718e-01       2.333668922697e+03 
       1.964049504139e-01       2.208028206216e+03 
       2.029729419383e-01       2.069482713138e+03 
       2.097605958973e-01       1.927172487011e+03 
       2.167753445239e-01       1.793260543222e+03 
       2.240249910307e-01       1.677258928129e+03 
       2.315177876008e-01       1.581846579301e+03 
       2.392625258919e-01       1.502061995658e+03 
       2.472686417792e-01       1.428219659138e+03 
       2.555463364834e-01       1.351305626023e+03 
       2.641067167993e-01       1.268022483389e+03 
       2.729619578909e-01       1.182176583237e+03 
       2.821254931236e-01       1.101254926461e+03 
       2.916122367205e-01       1.030722819121e+03 
       3.014388467845e-01       9.703250905692e+02 
       3.116240385568e-01       9.149811671154e+02 
       3.221889609185e-01       8.593717311058e+02 
       3.331576533900e-01       8.023185574812e+02 
       3.445576067198e-01       7.469788970637e+02 
       3.564204582775e-01       6.968670766328e+02 
       3.687828649271e-01       6.520950332768e+02 
       3.816876125055e-01       6.098031402346e+02 
       3.951850450260e-01       5.678798672203e+02 
       4.093349323998e-01       5.271639972637e+02 
       4.242089495829e-01       4.894346487587e+02 
       4.398940239919e-01       4.545106426109e+02 
       4.564969414716e-01       4.208727454309e+02 
       4.741508190551e-01       3.882615139351e+02 
       4.930244198077e-01       3.574723715820e+02 
       5.133359245567e-01       3.282747227440e+02 
       5.353739333020e-01       2.999898488568e+02 
       5.595306593793e-01       2.727918290834e+02 
       5.863566328909e-01       2.465497645494e+02 
       6.166553844355e-01       2.208929329081e+02 
       6.516570906779e-01       1.957222118123e+02 
       6.933593997718e-01       1.706577556193e+02 
       7.452500420189e-01       1.453330141799e+02 
       8.139615332596e-01       1.192169983271e+02 
       9.131747733225e-01       9.181289523600e+01 
       1.070626202983e+00       6.366194746571e+01 
       1.320135095736e+00       3.898510966229e+01 
       1.659609999943e+00       2.259646576610e+01 
       2.089283874030e+00       1.293461603422e+01 
       2.630252420221e+00       7.342258069902e+00 
       3.311291611183e+00       4.136488724803e+00 
       4.168669155179e+00       2.314529136765e+00 
       5.248043532817e+00       1.287027766116e+00 
       6.606895365665e+00       7.116093189662e-01 
       8.317588468901e+00       3.914080792221e-01 
       1.047122348835e+01       2.142558593274e-01 
