# Matter power spectrum P(k) at redshift z=1
# for k=2.10458e-07 to 10.5587 h/Mpc,
# number of wavenumbers equal to 139
#    1:k (h/Mpc)              2:P (Mpc/h)^3        
       2.104584510695e-07       5.630497019028e-01 
       2.649514921782e-07       6.988061727864e-01 
       3.335541663960e-07       8.672947792961e-01 
       4.199198162857e-07       1.076407540679e+00 
       5.286477276380e-07       1.335939314222e+00 
       6.655280582107e-07       1.658046586886e+00 
       8.378501847435e-07       2.057816885254e+00 
       1.054790888850e-06       2.553975474855e+00 
       1.327903054102e-06       3.169762449868e+00 
       1.671730899208e-06       3.934021294538e+00 
       2.104584510695e-06       4.882549902487e+00 
       2.649514921782e-06       6.059777327665e+00 
       3.335541663960e-06       7.520844797139e+00 
       4.199198162857e-06       9.334188438092e+00 
       5.286477276380e-06       1.158474464385e+01 
       6.655280582107e-06       1.437792813859e+01 
       8.378501847435e-06       1.784456889655e+01 
       1.054790888850e-05       2.214703882102e+01 
       1.327903054102e-05       2.748685448578e+01 
       1.671730899208e-05       3.411411074839e+01 
       2.104584510695e-05       4.233918449815e+01 
       2.649514921782e-05       5.254725168456e+01 
       3.335541663960e-05       6.521628758334e+01 
       4.199198162857e-05       8.093937382030e+01 
       5.286477276380e-05       1.004523184694e+02 
       6.655280582107e-05       1.246678073777e+02 
       8.378501847435e-05       1.547175385972e+02 
       1.054790888850e-04       1.920040250947e+02 
       1.327903054102e-04       2.382639326453e+02 
       1.671730899208e-04       2.956448420052e+02 
       2.104584510695e-04       3.667969817302e+02 
       2.649514921782e-04       4.549804083589e+02 
       3.335541663960e-04       5.641857569890e+02 
       4.199198162857e-04       6.992623839485e+02 
       5.286477276380e-04       8.660411909520e+02 
       6.655280582107e-04       1.071431832057e+03 
       8.378501847435e-04       1.323468266480e+03 
       1.054790888850e-03       1.631269886040e+03 
       1.327903054102e-03       2.004847226704e+03 
       1.671730899208e-03       2.454574309978e+03 
       2.104584510695e-03       2.990111569105e+03 
       2.649514921782e-03       3.618718251092e+03 
       3.335541663960e-03       4.342792051445e+03 
       4.199198162857e-03       5.156596086898e+03 
       5.286477276380e-03       6.033817910236e+03 
       6.655280582107e-03       6.951230894491e+03 
       8.378501847435e-03       7.844270374799e+03 
       1.054790888850e-02       8.625838898345e+03 
       1.327903054102e-02       9.178621029828e+03 
       1.671730899205e-02       9.362118346469e+03 
       2.104584491842e-02       9.042912072482e+03 
       2.649500992828e-02       8.167245172973e+03 
       3.333660072247e-02       6.873079890319e+03 
       4.137941413548e-02       5.598114939269e+03 
       4.812222105269e-02       4.869844373024e+03 
       5.301924860800e-02       4.505287167047e+03 
       5.706363654591e-02       4.273213261182e+03 
       6.067757234830e-02       4.095438392872e+03 
       6.404973391555e-02       3.939412545381e+03 
       6.728018082411e-02       3.788909919517e+03 
       7.042899313724e-02       3.635403225319e+03 
       7.353567660887e-02       3.474892543711e+03 
       7.662809660816e-02       3.306476834595e+03 
       7.972705700889e-02       3.131531701427e+03 
       8.284884701528e-02       2.953083886353e+03 
       8.600675140802e-02       2.775230604663e+03 
       8.921199324517e-02       2.602561730253e+03 
       9.247434742175e-02       2.439597142932e+03 
       9.580255400054e-02       2.290274121274e+03 
       9.920460469977e-02       2.157522860699e+03 
       1.026879461688e-01       2.042957037797e+03 
       1.062596269806e-01       1.946689801076e+03 
       1.099264055140e-01       1.867275936647e+03 
       1.136948300069e-01       1.801784943983e+03 
       1.175712983987e-01       1.746026069650e+03 
       1.215621032457e-01       1.694963111082e+03 
       1.256734654829e-01       1.643347263245e+03 
       1.299115598086e-01       1.586542473011e+03 
       1.342825338051e-01       1.521419287156e+03 
       1.387925224715e-01       1.447091060443e+03 
       1.434476595478e-01       1.365223586567e+03 
       1.482540868212e-01       1.279726102669e+03 
       1.532179624767e-01       1.195825982651e+03 
       1.583454694769e-01       1.118760860039e+03 
       1.636428249059e-01       1.052463844279e+03 
       1.691162911787e-01       9.985955472304e+02 
       1.747721900028e-01       9.561379653668e+02 
       1.806169199593e-01       9.216357014280e+02 
       1.866569785669e-01       8.901074009887e+02 
       1.928989896862e-01       8.565483381198e+02 
       1.993497371241e-01       8.176692390664e+02 
       2.060162053132e-01       7.731675513773e+02 
       2.129056279727e-01       7.257913327044e+02 
       2.200255457190e-01       6.799991053443e+02 
       2.273838736878e-01       6.398460682044e+02 
       2.349889803856e-01       6.071664494078e+02 
       2.428497792020e-01       5.808811218632e+02 
       2.509758343257e-01       5.576946988555e+02 
       2.593774832297e-01       5.339094330101e+02 
       2.680659784604e-01       5.075067939731e+02 
       2.770536522259e-01       4.792113354312e+02 
       2.863541082856e-01       4.516973407502e+02 
       2.959824469715e-01       4.274940351773e+02 
       3.059555309362e-01       4.071942667944e+02 
       3.162923015671e-01       3.892517673708e+02 
       3.270141591603e-01       3.714300653153e+02 
       3.381454242211e-01       3.527119887855e+02 
       3.497139031254e-01       3.339640955672e+02 
       3.617515895361e-01       3.167351977032e+02 
       3.742955444817e-01       3.015311083562e+02 
       3.873890145128e-01       2.874345480903e+02 
       4.010828714235e-01       2.733663055592e+02 
       4.154374927828e-01       2.593543416032e+02 
       4.305252567368e-01       2.461753331077e+02 
       4.464339085595e-01       2.340337877531e+02 
       4.632711898878e-01       2.223425700356e+02 
       4.811713393608e-01       2.107951926315e+02 
       5.003044397430e-01       1.997123549213e+02 
       5.208902241590e-01       1.891498625982e+02 
       5.432191069369e-01       1.787774463585e+02 
       5.676853817831e-01       1.685977543800e+02 
       5.948418499367e-01       1.586256010759e+02 
       6.254942069441e-01       1.486526218958e+02 
       6.608737839256e-01       1.386141817194e+02 
       7.029757781912e-01       1.282971769723e+02 
       7.552744565592e-01       1.174481730378e+02 
       8.243571802831e-01       1.056436390150e+02 
       9.237836644701e-01       9.226190949159e+01 
       1.081177668893e+00       7.672177360545e+01 
       1.331397095416e+00       6.012474310323e+01 
       1.673478604015e+00       4.569298551049e+01 
       2.106735502089e+00       3.415614936941e+01 
       2.652222680932e+00       2.499820044081e+01 
       3.338950530671e+00       1.782661045663e+01 
       4.203489671786e+00       1.234517931058e+01 
       5.291879966025e+00       8.289938662136e+00 
       6.662082165394e+00       5.403284500782e+00 
       8.387064533475e+00       3.429331738278e+00 
       1.055868867155e+01       2.128318261079e+00 
