# Matter power spectrum P(k) at redshift z=0.5
# for k=2.20388e-07 to 11.0569 h/Mpc,
# number of wavenumbers equal to 139
#    1:k (h/Mpc)              2:P (Mpc/h)^3        
       2.203879499856e-07       6.863816371405e-01 
       2.774519906901e-07       8.561811381226e-01 
       3.492913616326e-07       1.067986235961e+00 
       4.397317712795e-07       1.332188422353e+00 
       5.535895012370e-07       1.661749872372e+00 
       6.969278908098e-07       2.072839388572e+00 
       8.773802319285e-07       2.585625667082e+00 
       1.104556269781e-06       3.225266803664e+00 
       1.390553956783e-06       4.023144585584e+00 
       1.750603712666e-06       5.018404124047e+00 
       2.203879499856e-06       6.259874360019e+00 
       2.774519906901e-06       7.808463658375e+00 
       3.492913616326e-06       9.740148009933e+00 
       4.397317712795e-06       1.214969841487e+01 
       5.535895012370e-06       1.515533026573e+01 
       6.969278908098e-06       1.890450272070e+01 
       8.773802319285e-06       2.358115237511e+01 
       1.104556269781e-05       2.941471568569e+01 
       1.390553956783e-05       3.669138193088e+01 
       1.750603712666e-05       4.576812709755e+01 
       2.203879499856e-05       5.709021380875e+01 
       2.774519906901e-05       7.121300920048e+01 
       3.492913616326e-05       8.882917794312e+01 
       4.397317712795e-05       1.108025584631e+02 
       5.535895012370e-05       1.382103329471e+02 
       6.969278908098e-05       1.723954588248e+02 
       8.773802319285e-05       2.150317350049e+02 
       1.104556269781e-04       2.682043056779e+02 
       1.390553956783e-04       3.345087928889e+02 
       1.750603712666e-04       4.171724588413e+02 
       2.203879499856e-04       5.202005611397e+02 
       2.774519906901e-04       6.485499129414e+02 
       3.492913616326e-04       8.083288988101e+02 
       4.397317712795e-04       1.007018069304e+03 
       5.535895012370e-04       1.253697772619e+03 
       6.969278908098e-04       1.559260429562e+03 
       8.773802319285e-04       1.936575857927e+03 
       1.104556269781e-03       2.400554963026e+03 
       1.390553956783e-03       2.967977147883e+03 
       1.750603712666e-03       3.656826691979e+03 
       2.203879499856e-03       4.484917531173e+03 
       2.774519906901e-03       5.467566495030e+03 
       3.492913616326e-03       6.613946921937e+03 
       4.397317712795e-03       7.922027341363e+03 
       5.535895012370e-03       9.340589820320e+03 
       6.969278908098e-03       1.086990545751e+04 
       8.773802319285e-03       1.240380947342e+04 
       1.104556269781e-02       1.380996550230e+04 
       1.390553956783e-02       1.490298585576e+04 
       1.750603712658e-02       1.545236838978e+04 
       2.203879462745e-02       1.522678578434e+04 
       2.774496590041e-02       1.410611478396e+04 
       3.490153154180e-02       1.226306648012e+04 
       4.317665964232e-02       1.036964484214e+04 
       4.988590835210e-02       9.257989586974e+03 
       5.480658151057e-02       8.658317764736e+03 
       5.890743267866e-02       8.253241154171e+03 
       6.258943778584e-02       7.931158933217e+03 
       6.603475099600e-02       7.643831297949e+03 
       6.934119296794e-02       7.366658970787e+03 
       7.256803035592e-02       7.086509944915e+03 
       7.575449953475e-02       6.797115040783e+03 
       7.892842559111e-02       6.496956090265e+03 
       8.211067524673e-02       6.188038615606e+03 
       8.531764899065e-02       5.874954837565e+03 
       8.856276616719e-02       5.564007514576e+03 
       9.185739566642e-02       5.262327076002e+03 
       9.521146364681e-02       4.976994627055e+03 
       9.863386404005e-02       4.714222342630e+03 
       1.021327437143e-01       4.478650364804e+03 
       1.057157051789e-01       4.272808726420e+03 
       1.093899533758e-01       4.096774922961e+03 
       1.131624035346e-01       3.948046360381e+03 
       1.170397612676e-01       3.821652043089e+03 
       1.210285824714e-01       3.710547359960e+03 
       1.251353182977e-01       3.606347789650e+03 
       1.293663489573e-01       3.500430953701e+03 
       1.337280091381e-01       3.385341868972e+03 
       1.382266071576e-01       3.256278106957e+03 
       1.428684395410e-01       3.112270976805e+03 
       1.476598024177e-01       2.956619655362e+03 
       1.526070009461e-01       2.796276265332e+03 
       1.577163578487e-01       2.640211168707e+03 
       1.629942220614e-01       2.497170068834e+03 
       1.684469784542e-01       2.373456040373e+03 
       1.740810595472e-01       2.271327492693e+03 
       1.799029601281e-01       2.188385685176e+03 
       1.859192556635e-01       2.118124648158e+03 
       1.921366253872e-01       2.051685519704e+03 
       1.985618809470e-01       1.980613914579e+03 
       2.052020014920e-01       1.899887072579e+03 
       2.120641761021e-01       1.809907150748e+03 
       2.191558544925e-01       1.716230223935e+03 
       2.264848069942e-01       1.626887942718e+03 
       2.340591949136e-01       1.548596150376e+03 
       2.418876525344e-01       1.483756681998e+03 
       2.499793822568e-01       1.429609221661e+03 
       2.583442646951e-01       1.379873689745e+03 
       2.669929860007e-01       1.328230749756e+03 
       2.759371852766e-01       1.271909529046e+03 
       2.851896257503e-01       1.213051524285e+03 
       2.947643944295e-01       1.156706345019e+03 
       3.046771363646e-01       1.106934918155e+03 
       3.149453314939e-01       1.064002392526e+03 
       3.255886245210e-01       1.024643456191e+03 
       3.366292215921e-01       9.850452474217e+02 
       3.480923720504e-01       9.440540783713e+02 
       3.600069597374e-01       9.036810469882e+02 
       3.724062369360e-01       8.665011378957e+02 
       3.853287462377e-01       8.328528996232e+02 
       3.988194931106e-01       8.008353256209e+02 
       4.129314575003e-01       7.688252274929e+02 
       4.277275708190e-01       7.372535390901e+02 
       4.432833424344e-01       7.074055736241e+02 
       4.596904094579e-01       6.792786334990e+02 
       4.770614264153e-01       6.517961714309e+02 
       4.955369449743e-01       6.246608571055e+02 
       5.152953279455e-01       5.984015952495e+02 
       5.365674296725e-01       5.728810161270e+02 
       5.596590232703e-01       5.475508035096e+02 
       5.849863222814e-01       5.224293496207e+02 
       6.131346626436e-01       4.973425489456e+02 
       6.449603647825e-01       4.718628303318e+02 
       6.817781774444e-01       4.456735722370e+02 
       7.257306365979e-01       4.181212957098e+02 
       7.805745510929e-01       3.882868520335e+02 
       8.534884412897e-01       3.546174702603e+02 
       9.593262446295e-01       3.145970456825e+02 
       1.127938543483e+00       2.652885871178e+02 
       1.393624614033e+00       2.093124760316e+02 
       1.752426162502e+00       1.576019800157e+02 
       2.206140625713e+00       1.142922547509e+02 
       2.777366392694e+00       7.966523455223e+01 
       3.496497129583e+00       5.348535461424e+01 
       4.401829088697e+00       3.477696030014e+01 
       5.541574498135e+00       2.203642509480e+01 
       6.976428957053e+00       1.368588437671e+01 
       8.782803697611e+00       8.371203523078e+00 
       1.105689476172e+01       5.062498704985e+00 
