# Matter power spectrum P(k) at redshift z=0
# for k=1.59838e-07 to 10.0993 h/Mpc,
# number of wavenumbers equal to 140
#    1:k (h/Mpc)              2:P (Mpc/h)^3        
       1.598383618937e-07       2.611628357386e+00 
       2.012245755676e-07       3.257702154029e+00 
       2.533267316595e-07       4.063603952924e+00 
       3.189194599729e-07       5.068872563025e+00 
       4.014958124756e-07       6.322828039047e+00 
       5.054532810544e-07       7.886991396164e+00 
       6.363279799942e-07       9.838102919779e+00 
       8.010894642503e-07       1.227188714685e+01 
       1.008511883665e-06       1.530774922797e+01 
       1.269641238443e-06       1.909463306331e+01 
       1.598383618937e-06       2.381832858815e+01 
       2.012245755676e-06       2.971058665064e+01 
       2.533267316595e-06       3.706048853886e+01 
       3.189194599729e-06       4.622862771006e+01 
       4.014958124756e-06       5.766479898499e+01 
       5.054532810544e-06       7.193006206499e+01 
       6.363279799942e-06       8.972425983966e+01 
       8.010894642503e-06       1.119203376652e+02 
       1.008511883665e-05       1.396071395301e+02 
       1.269641238443e-05       1.741427654521e+02 
       1.598383618937e-05       2.172210774091e+02 
       2.012245755676e-05       2.709545567269e+02 
       2.533267316595e-05       3.379774594474e+02 
       3.189194599729e-05       4.215740968188e+02 
       4.014958124756e-05       5.258380738952e+02 
       5.054532810544e-05       6.558693932927e+02 
       6.363279799942e-05       8.180173198066e+02 
       8.010894642503e-05       1.020177463208e+03 
       1.008511883665e-04       1.272150969561e+03 
       1.269641238443e-04       1.586070693726e+03 
       1.598383618937e-04       1.976891452507e+03 
       2.012245755676e-04       2.462925440729e+03 
       2.533267316595e-04       3.066375666700e+03 
       3.189194599729e-04       3.813778834936e+03 
       4.014958124756e-04       4.736223942159e+03 
       5.054532810544e-04       5.869186064913e+03 
       6.363279799942e-04       7.251793747908e+03 
       8.010894642503e-04       8.925156130212e+03 
       1.008511883665e-03       1.092883453046e+04 
       1.269641238443e-03       1.329448549059e+04 
       1.598383618937e-03       1.603652973847e+04 
       2.012245755676e-03       1.913936157002e+04 
       2.533267316595e-03       2.254291959572e+04 
       3.189194599729e-03       2.612865141494e+04 
       4.014958124756e-03       2.970416535324e+04 
       5.054532810544e-03       3.299590425048e+04 
       6.363279799942e-03       3.562041749142e+04 
       8.010894642503e-03       3.719662776057e+04 
       1.008511883665e-02       3.722386678834e+04 
       1.269641238443e-02       3.523458756761e+04 
       1.598383618663e-02       3.093176144217e+04 
       2.012245210300e-02       2.451669975076e+04 
       2.533101875956e-02       1.711323405563e+04 
       3.178406690888e-02       1.080591737480e+04 
       3.841723736362e-02       7.555017211939e+03 
       4.324071426718e-02       6.573578470853e+03 
       4.698493123712e-02       6.266093046805e+03 
       5.022160558940e-02       6.156280689091e+03 
       5.318568784971e-02       6.086218927455e+03 
       5.599221462224e-02       5.984485758303e+03 
       5.870643722778e-02       5.815358383097e+03 
       6.136948772520e-02       5.564261188243e+03 
       6.400943476783e-02       5.232236885731e+03 
       6.664667439205e-02       4.832535844557e+03 
       6.929681579303e-02       4.387224929931e+03 
       7.197234169302e-02       3.923326020737e+03 
       7.468361986297e-02       3.468724636665e+03 
       7.743954851430e-02       3.048425768394e+03 
       8.024798399692e-02       2.681777983446e+03 
       8.311603325079e-02       2.381066633574e+03 
       8.605025901699e-02       2.151476945949e+03 
       8.905682690776e-02       1.992002172705e+03 
       9.214161260052e-02       1.896608695216e+03 
       9.531028098129e-02       1.855029843665e+03 
       9.856834511478e-02       1.852979847061e+03 
       1.019212104325e-01       1.872211845453e+03 
       1.053742079321e-01       1.891357761218e+03 
       1.089326191361e-01       1.888478817269e+03 
       1.126016948662e-01       1.845490517261e+03 
       1.163866694290e-01       1.753296082222e+03 
       1.202927715034e-01       1.615320996520e+03 
       1.243252328164e-01       1.447194866723e+03 
       1.284892955613e-01       1.272027070764e+03 
       1.327902194277e-01       1.113201057028e+03 
       1.372332890582e-01       9.880084206473e+02 
       1.418238227149e-01       9.045030724717e+02 
       1.465671829142e-01       8.614625171058e+02 
       1.514687897799e-01       8.496456735700e+02 
       1.565341378500e-01       8.532893104053e+02 
       1.617688170706e-01       8.529724086708e+02 
       1.671785387088e-01       8.314773990697e+02 
       1.727691669206e-01       7.812853859104e+02 
       1.785467567336e-01       7.086181558715e+02 
       1.845175992370e-01       6.298719752735e+02 
       1.906882748421e-01       5.624929136408e+02 
       1.970657155765e-01       5.168646300079e+02 
       2.036572775353e-01       4.933178243429e+02 
       2.104708248284e-01       4.834204210400e+02 
       2.175148266798e-01       4.740281121677e+02 
       2.247984697463e-01       4.540330128530e+02 
       2.323317882907e-01       4.211754741604e+02 
       2.401258155869e-01       3.829263480277e+02 
       2.481927609227e-01       3.498416653968e+02 
       2.565462178687e-01       3.276676032772e+02 
       2.652014112142e-01       3.143620220143e+02 
       2.741754922892e-01       3.027288576459e+02 
       2.834878955129e-01       2.865704991033e+02 
       2.931607732742e-01       2.658984701086e+02 
       3.032195321356e-01       2.458469900220e+02 
       3.136935016006e-01       2.305600048981e+02 
       3.246167784119e-01       2.192090165352e+02 
       3.360293063025e-01       2.078732966906e+02 
       3.479782760723e-01       1.945975846144e+02 
       3.605199682955e-01       1.813130070982e+02 
       3.737222183290e-01       1.702389205226e+02 
       3.876677732677e-01       1.606208299178e+02 
       4.024589552971e-01       1.506250628909e+02 
       4.182242857125e-01       1.405519471406e+02 
       4.351281339878e-01       1.315330820280e+02 
       4.533851833484e-01       1.230179258909e+02 
       4.732828469800e-01       1.144371762887e+02 
       4.952173659710e-01       1.063084965472e+02 
       5.197546146925e-01       9.838865767264e+01 
       5.477380973651e-01       9.052072753001e+01 
       5.804931184885e-01       8.271246316267e+01 
       6.202418208051e-01       7.476272461723e+01 
       6.710165489334e-01       6.649077376320e+01 
       7.408066363178e-01       5.761676040346e+01 
       8.463706747953e-01       4.783558393466e+01 
       1.017553907438e+00       3.740998438989e+01 
       1.271729373035e+00       2.816436195451e+01 
       1.600639506487e+00       2.121823672559e+01 
       2.015082587434e+00       1.602913247840e+01 
       2.536838671679e+00       1.206688687140e+01 
       3.193690669398e+00       8.999437996393e+00 
       4.020618341115e+00       6.615615432250e+00 
       5.061658600755e+00       4.773724994750e+00 
       6.372250638317e+00       3.370561878116e+00 
       8.022188258899e+00       2.323705752158e+00 
       1.009933665732e+01       1.562767589614e+00 
