# Matter power spectrum P(k) at redshift z=2.5
# for k=2.09352e-07 to 10.5031 h/Mpc,
# number of wavenumbers equal to 139
#    1:k (h/Mpc)              2:P (Mpc/h)^3        
       2.093520500716e-07       1.767010692471e-01 
       2.635586158464e-07       2.198209989917e-01 
       3.318006389863e-07       2.734633796277e-01 
       4.177122560694e-07       3.401959790632e-01 
       5.258685739836e-07       4.232131711826e-01 
       6.620293110519e-07       5.264888448774e-01 
       8.334455230359e-07       6.549666270593e-01 
       1.049245748296e-06       8.147965250275e-01 
       1.320922135747e-06       1.013629315686e+00 
       1.662942443693e-06       1.260982773451e+00 
       2.093520500716e-06       1.568697266069e+00 
       2.635586158464e-06       1.951502524670e+00 
       3.318006389863e-06       2.427722718040e+00 
       4.177122560694e-06       3.020153570354e+00 
       5.258685739836e-06       3.757153499159e+00 
       6.620293110519e-06       4.674000977897e+00 
       8.334455230359e-06       5.814583045663e+00 
       1.049245748296e-05       7.233495686659e+00 
       1.320922135747e-05       8.998656433952e+00 
       1.662942443693e-05       1.119455385000e+01 
       2.093520500716e-05       1.392628867987e+01 
       2.635586158464e-05       1.732459857815e+01 
       3.318006389863e-05       2.155210397294e+01 
       4.177122560694e-05       2.681106811603e+01 
       5.258685739836e-05       3.335303120473e+01 
       6.620293110519e-05       4.149075687081e+01 
       8.334455230359e-05       5.161301807475e+01 
       1.049245748296e-04       6.420284215068e+01 
       1.320922135747e-04       7.985991640598e+01 
       1.662942443693e-04       9.932789236196e+01 
       2.093520500716e-04       1.235272505542e+02 
       2.635586158464e-04       1.535940707882e+02 
       3.318006389863e-04       1.909242729799e+02 
       4.177122560694e-04       2.372213152354e+02 
       5.258685739836e-04       2.945425786101e+02 
       6.620293110519e-04       3.653356544682e+02 
       8.334455230359e-04       4.524515251991e+02 
       1.049245748296e-03       5.591198714168e+02 
       1.320922135747e-03       6.888724225122e+02 
       1.662942443693e-03       8.453847578651e+02 
       2.093520500716e-03       1.032143094741e+03 
       2.635586158464e-03       1.251816428719e+03 
       3.318006389863e-03       1.505379531294e+03 
       4.177122560694e-03       1.790977008012e+03 
       5.258685739836e-03       2.101486808844e+03 
       6.620293110519e-03       2.425913793634e+03 
       8.334455230359e-03       2.743196406359e+03 
       1.049245748296e-02       3.023093451322e+03 
       1.320922135747e-02       3.224840290670e+03 
       1.662942443689e-02       3.299583710179e+03 
       2.093520478793e-02       3.200746484457e+03 
       2.635570595736e-02       2.908813642481e+03 
       3.315971431937e-02       2.469770572907e+03 
       4.112799602660e-02       2.033719510173e+03 
       4.775230092710e-02       1.782522295502e+03 
       5.257408397876e-02       1.653648642045e+03 
       5.656534830388e-02       1.569671176880e+03 
       6.013608714273e-02       1.504180527126e+03 
       6.347026438882e-02       1.446102776050e+03 
       6.666574358654e-02       1.389915791702e+03 
       6.978141715999e-02       1.332738482765e+03 
       7.285607490147e-02       1.273250306905e+03 
       7.591711359651e-02       1.211198449042e+03 
       7.898500977568e-02       1.147110628633e+03 
       8.207581130744e-02       1.082074826995e+03 
       8.520261668210e-02       1.017535236605e+03 
       8.837649929158e-02       9.550900599791e+02 
       9.160710948354e-02       8.962961835918e+02 
       9.490308041117e-02       8.424917192136e+02 
       9.827230949002e-02       7.946494276923e+02 
       1.017221581938e-01       7.532699941354e+02 
       1.052595965818e-01       7.183188345105e+02 
       1.088913094017e-01       6.892082343231e+02 
       1.126237748372e-01       6.648286441403e+02 
       1.164633233811e-01       6.436383760658e+02 
       1.204161820261e-01       6.238243375556e+02 
       1.244885074826e-01       6.035410111256e+02 
       1.286864111537e-01       5.812125203165e+02 
       1.330159779498e-01       5.558467159657e+02 
       1.374832805924e-01       5.272777126408e+02 
       1.420943907704e-01       4.962435574145e+02 
       1.468553883203e-01       4.642406252398e+02 
       1.517723694835e-01       4.331677160983e+02 
       1.568514552118e-01       4.048519488412e+02 
       1.620988004468e-01       3.805901914622e+02 
       1.675206052648e-01       3.608262962235e+02 
       1.731231287641e-01       3.450365961287e+02 
       1.789127065540e-01       3.318549142960e+02 
       1.848957726988e-01       3.194434160892e+02 
       1.910788869664e-01       3.060643291366e+02 
       1.974687682324e-01       2.906977802466e+02 
       2.040723349062e-01       2.734384455163e+02 
       2.108967532774e-01       2.554282957265e+02 
       2.179494947423e-01       2.383057993851e+02 
       2.252384029654e-01       2.234365768167e+02 
       2.327717721822e-01       2.113081415892e+02 
       2.405584380700e-01       2.013609787966e+02 
       2.486078829159e-01       1.923237593452e+02 
       2.569303572377e-01       1.829176743754e+02 
       2.655370205783e-01       1.725776618863e+02 
       2.744401049523e-01       1.617261513056e+02 
       2.836531054244e-01       1.513753051886e+02 
       2.931910036251e-01       1.423484840021e+02 
       3.030705317623e-01       1.347112492377e+02 
       3.133104870275e-01       1.278144324532e+02 
       3.239321094319e-01       1.208874214550e+02 
       3.349595403712e-01       1.136857308234e+02 
       3.464203850617e-01       1.066055596418e+02 
       3.583464101272e-01       1.001717155581e+02 
       3.707744191012e-01       9.446698577242e+01 
       3.837473650728e-01       8.911353783499e+01 
       3.973157837360e-01       8.377531078799e+01 
       4.115396658001e-01       7.853228608559e+01 
       4.264909418785e-01       7.365332657837e+01 
       4.422568369399e-01       6.915201549118e+01 
       4.589444848565e-01       6.481075652254e+01 
       4.766874114963e-01       6.056538718217e+01 
       4.956548616180e-01       5.653532039041e+01 
       5.160655836705e-01       5.270838069668e+01 
       5.382088427980e-01       4.897767773547e+01 
       5.624776180324e-01       4.536277048467e+01 
       5.894232812219e-01       4.185562339764e+01 
       6.198501782566e-01       3.839543976095e+01 
       6.549889567959e-01       3.496819209189e+01 
       6.968364715179e-01       3.151321914388e+01 
       7.488757546657e-01       2.796817260284e+01 
       8.177233356599e-01       2.423451391887e+01 
       9.170171389640e-01       2.019298801876e+01 
       1.074455953094e+00       1.582228964122e+01 
       1.324239332459e+00       1.163543272685e+01 
       1.664669505511e+00       8.449271272419e+00 
       2.095650717930e+00       6.199718879874e+00 
       2.638267789332e+00       4.575289537544e+00 
       3.321382363033e+00       3.370952672607e+00 
       4.181372659107e+00       2.461456385446e+00 
       5.264036296732e+00       1.769560403303e+00 
       6.627029062562e+00       1.245771945005e+00 
       8.342935291558e+00       8.556136964369e-01 
       1.050313324750e+01       5.721187363286e-01 
