# Matter power spectrum P(k) at redshift z=2
# for k=2.09114e-07 to 10.4912 h/Mpc,
# number of wavenumbers equal to 139
#    1:k (h/Mpc)              2:P (Mpc/h)^3        
       2.091139224469e-07       1.990126219963e-01 
       2.632588309284e-07       2.483994450660e-01 
       3.314232321349e-07       3.100420649741e-01 
       4.172371289936e-07       3.869818711005e-01 
       5.252704244341e-07       4.830150014750e-01 
       6.612762853840e-07       6.028796404732e-01 
       8.324975198868e-07       7.524897965586e-01 
       1.048052283041e-06       9.392270930572e-01 
       1.319419652009e-06       1.172304969368e+00 
       1.661050928735e-06       1.463223261611e+00 
       2.091139224469e-06       1.826335589343e+00 
       2.632588309284e-06       2.279557540445e+00 
       3.314232321349e-06       2.845250593115e+00 
       4.172371289936e-06       3.551325375883e+00 
       5.252704244341e-06       4.432618684866e+00 
       6.612762853840e-06       5.532612165523e+00 
       8.324975198868e-06       6.905577391706e+00 
       1.048052283041e-05       8.619253053150e+00 
       1.319419652009e-05       1.075818609162e+01 
       1.661050928735e-05       1.342790111825e+01 
       2.091139224469e-05       1.676010287195e+01 
       2.632588309284e-05       2.091916641473e+01 
       3.314232321349e-05       2.611023145867e+01 
       4.172371289936e-05       3.258929254976e+01 
       5.252704244341e-05       4.067576786398e+01 
       6.612762853840e-05       5.076813711856e+01 
       8.324975198868e-05       6.336336145558e+01 
       1.048052283041e-04       7.908092842642e+01 
       1.319419652009e-04       9.869248278765e+01 
       1.661050928735e-04       1.231580656728e+02 
       2.091139224469e-04       1.536699018781e+02 
       2.632588309284e-04       1.917042818131e+02 
       3.314232321349e-04       2.390810979110e+02 
       4.172371289936e-04       2.980286001525e+02 
       5.252704244341e-04       3.712475102503e+02 
       6.612762853840e-04       4.619638357730e+02 
       8.324975198868e-04       5.739550390764e+02 
       1.048052283041e-03       7.115323256179e+02 
       1.319419652009e-03       8.794586979466e+02 
       1.661050928735e-03       1.082749472741e+03 
       2.091139224469e-03       1.326221688563e+03 
       2.632588309284e-03       1.613683241776e+03 
       3.314232321349e-03       1.946808132039e+03 
       4.172371289936e-03       2.323603109718e+03 
       5.252704244341e-03       2.736354881477e+03 
       6.612762853840e-03       3.169207758910e+03 
       8.324975198868e-03       3.595588814499e+03 
       1.048052283041e-02       3.975751338078e+03 
       1.319419652009e-02       4.255611617962e+03 
       1.661050928731e-02       4.369738388554e+03 
       2.091139201838e-02       4.254861817734e+03 
       2.632572379285e-02       3.882714531659e+03 
       3.312163588632e-02       3.311594713310e+03 
       4.107387848740e-02       2.739144244876e+03 
       4.767319928917e-02       2.407542409705e+03 
       5.247914673715e-02       2.236194964538e+03 
       5.645919143324e-02       2.123807431795e+03 
       6.002078765332e-02       2.035671592124e+03 
       6.334691510579e-02       1.957190937118e+03 
       6.653497754377e-02       1.881081408493e+03 
       6.964361819105e-02       1.803550797738e+03 
       7.271147635560e-02       1.722876232735e+03 
       7.576585019614e-02       1.638753020424e+03 
       7.882714726200e-02       1.551913222044e+03 
       8.191136451078e-02       1.463832032416e+03 
       8.503156109627e-02       1.376455321047e+03 
       8.819877877962e-02       1.291929772229e+03 
       9.142264156531e-02       1.212341955390e+03 
       9.471175997753e-02       1.139481172524e+03 
       9.807401145838e-02       1.074643015353e+03 
       1.015167394309e-01       1.018485702387e+03 
       1.050468973074e-01       9.709447184099e+02 
       1.086711542173e-01       9.312090389482e+02 
       1.123959734794e-01       8.977652526718e+02 
       1.162276712710e-01       8.685220991009e+02 
       1.201724606658e-01       8.410329529464e+02 
       1.242364847370e-01       8.128232261811e+02 
       1.284258414456e-01       7.817997595865e+02 
       1.327466023911e-01       7.466710107686e+02 
       1.372048270668e-01       7.072648624130e+02 
       1.418065739804e-01       6.646211456693e+02 
       1.465579098081e-01       6.207846191943e+02 
       1.514649176316e-01       5.783198225978e+02 
       1.565337052283e-01       5.396724343242e+02 
       1.617704143367e-01       5.065553362825e+02 
       1.671812317877e-01       4.795196108463e+02 
       1.727724033756e-01       4.578089594244e+02 
       1.785502513274e-01       4.395419643180e+02 
       1.845211962213e-01       4.222289699750e+02 
       1.906917842015e-01       4.035539852527e+02 
       1.970687203391e-01       3.822012924812e+02 
       2.036589090044e-01       3.583647798489e+02 
       2.104695021459e-01       3.336266261210e+02 
       2.175079564341e-01       3.101973957043e+02 
       2.247821003243e-01       2.898815927419e+02 
       2.323002122432e-01       2.732790960887e+02 
       2.400711113211e-01       2.595830342183e+02 
       2.481042624008e-01       2.470593967280e+02 
       2.564098974734e-01       2.340109677059e+02 
       2.649991562603e-01       2.197331236759e+02 
       2.738842494154e-01       2.048419695789e+02 
       2.830786488232e-01       1.907061812388e+02 
       2.925973107921e-01       1.783989568840e+02 
       3.024569396949e-01       1.679608064133e+02 
       3.126763019440e-01       1.584945593867e+02 
       3.232766033277e-01       1.489821541053e+02 
       3.342819469873e-01       1.391351966808e+02 
       3.457198951612e-01       1.295068102877e+02 
       3.576221659496e-01       1.207848287430e+02 
       3.700255078316e-01       1.130482457316e+02 
       3.829728111259e-01       1.057797311039e+02 
       3.965145395999e-01       9.854865163623e+01 
       4.107106011273e-01       9.148162816897e+01 
       4.256328304303e-01       8.493101596994e+01 
       4.413683409048e-01       7.889646863042e+01 
       4.580241359687e-01       7.308833746329e+01 
       4.757335883102e-01       6.743530109318e+01 
       4.946657623118e-01       6.209567606888e+01 
       5.150391940311e-01       5.704424999202e+01 
       5.371428999993e-01       5.214451815024e+01 
       5.613695735292e-01       4.742803218616e+01 
       5.882702732970e-01       4.288181851004e+01 
       6.186490439061e-01       3.843265750812e+01 
       6.537363646361e-01       3.406834156364e+01 
       6.955294037235e-01       2.972053069469e+01 
       7.475129881786e-01       2.532683128090e+01 
       8.163097158066e-01       2.079419446688e+01 
       9.155738091435e-01       1.603539965593e+01 
       1.073018670672e+00       1.114031725964e+01 
       1.322701453517e+00       6.836245229746e+00 
       1.662774411119e+00       3.968909869384e+00 
       2.093265970402e+00       2.275456621176e+00 
       2.635265574886e+00       1.293699454651e+00 
       3.317602798979e+00       7.300097866441e-01 
       4.176614469874e+00       4.091255077958e-01 
       5.258046091392e+00       2.278676485851e-01 
       6.619487840838e+00       1.261947234902e-01 
       8.333441455894e+00       6.952464331805e-02 
       1.049118121652e+01       3.812034461600e-02 
