# Matter power spectrum P(k) at redshift z=2
# for k=1.97843e-07 to 12.4958 h/Mpc,
# number of wavenumbers equal to 140
#    1:k (h/Mpc)              2:P (Mpc/h)^3        
       1.978432343705e-07       2.571048268966e-01 
       2.490698753006e-07       3.207083222098e-01 
       3.135603953284e-07       4.000462735107e-01 
       3.947491498111e-07       4.990111256881e-01 
       4.969597359813e-07       6.224582501013e-01 
       6.256352402654e-07       7.764441564919e-01 
       7.876281024841e-07       9.685236346425e-01 
       9.915650332604e-07       1.208120403308e+00 
       1.248306417818e-06       1.506989450811e+00 
       1.571524671097e-06       1.879793751409e+00 
       1.978432343705e-06       2.344823645585e+00 
       2.490698753006e-06       2.924894180727e+00 
       3.135603953284e-06       3.648464429273e+00 
       3.947491498111e-06       4.551033684655e+00 
       4.969597359813e-06       5.676883013172e+00 
       6.256352402654e-06       7.081247560350e+00 
       7.876281024841e-06       8.833026084261e+00 
       9.915650332604e-06       1.101816047379e+01 
       1.248306417818e-05       1.374385069307e+01 
       1.571524671097e-05       1.714381118146e+01 
       1.978432343705e-05       2.138482521229e+01 
       2.490698753006e-05       2.667491587619e+01 
       3.135603953284e-05       3.327352898757e+01 
       3.947491498111e-05       4.150421637542e+01 
       4.969597359813e-05       5.177041996449e+01 
       6.256352402654e-05       6.457508767574e+01 
       7.876281024841e-05       8.054499869435e+01 
       9.915650332604e-05       1.004608241628e+02 
       1.248306417818e-04       1.252940712556e+02 
       1.571524671097e-04       1.562520868614e+02 
       1.978432343705e-04       1.948321031616e+02 
       2.490698753006e-04       2.428846508871e+02 
       3.135603953284e-04       3.026851448214e+02 
       3.947491498111e-04       3.770094897916e+02 
       4.969597359813e-04       4.692046317332e+02 
       6.256352402654e-04       5.832383583887e+02 
       7.876281024841e-04       7.237067977010e+02 
       9.915650332604e-04       8.957770564007e+02 
       1.248306417818e-03       1.105039776409e+03 
       1.571524671097e-03       1.357200064713e+03 
       1.978432343705e-03       1.657428718516e+03 
       2.490698753006e-03       2.009259929960e+03 
       3.135603953284e-03       2.413145083941e+03 
       3.947491498111e-03       2.864555754006e+03 
       4.969597359813e-03       3.351621372975e+03 
       6.256352402654e-03       3.849903969615e+03 
       7.876281024841e-03       4.329706170132e+03 
       9.915650332604e-03       4.741117981563e+03 
       1.248306417818e-02       5.022301268212e+03 
       1.571524671094e-02       5.102740022922e+03 
       1.978432325006e-02       4.919689889707e+03 
       2.490685125804e-02       4.453975356556e+03 
       3.133783578534e-02       3.781731675259e+03 
       3.888824000139e-02       3.122349706865e+03 
       4.519989487184e-02       2.737451478141e+03 
       4.978726613193e-02       2.534822476106e+03 
       5.357886499216e-02       2.398476237184e+03 
       5.696831279081e-02       2.289320955862e+03 
       6.013176274505e-02       2.191369163748e+03 
       6.316273221177e-02       2.096950697574e+03 
       6.611741597212e-02       2.002304723452e+03 
       6.903278627855e-02       1.905918423455e+03 
       7.193493340442e-02       1.807746844768e+03 
       7.484334331080e-02       1.708747708605e+03 
       7.777327817672e-02       1.610531012321e+03 
       8.073718862041e-02       1.515051587624e+03 
       8.374559550924e-02       1.424326117493e+03 
       8.680766404671e-02       1.340177536127e+03 
       8.993159060044e-02       1.264019408294e+03 
       9.312487087060e-02       1.196691298881e+03 
       9.639449019674e-02       1.138353232808e+03 
       9.974706118889e-02       1.088443038152e+03 
       1.031889247490e-01       1.045700995356e+03 
       1.067262250383e-01       1.008270222377e+03 
       1.103649655191e-01       9.738838707596e+02 
       1.141110510199e-01       9.401455344225e+02 
       1.179703193539e-01       9.048885447215e+02 
       1.219485650921e-01       8.665639503397e+02 
       1.260515574714e-01       8.245688737402e+02 
       1.302850540065e-01       7.794078737805e+02 
       1.346548111000e-01       7.326049930083e+02 
       1.391665927658e-01       6.863520378458e+02 
       1.438261784628e-01       6.429700978746e+02 
       1.486393709632e-01       6.043283163313e+02 
       1.536120051304e-01       5.713763797196e+02 
       1.587499584557e-01       5.439075199493e+02 
       1.640591641817e-01       5.206132802582e+02 
       1.695456278301e-01       4.994427311833e+02 
       1.752154479423e-01       4.782195287495e+02 
       1.810748418364e-01       4.553661317418e+02 
       1.871301771905e-01       4.304669251581e+02 
       1.933880102701e-01       4.043839382918e+02 
       1.998551316541e-01       3.788151742429e+02 
       2.065386203649e-01       3.554840603631e+02 
       2.134459074038e-01       3.353561795260e+02 
       2.205848498321e-01       3.182531604626e+02 
       2.279638167461e-01       3.030297025311e+02 
       2.355917887825e-01       2.882285756959e+02 
       2.434784731897e-01       2.728876767578e+02 
       2.516344370377e-01       2.570271950361e+02 
       2.600712618504e-01       2.414858108484e+02 
       2.688017238951e-01       2.272259631230e+02 
       2.778400056112e-01       2.146322914662e+02 
       2.872019453185e-01       2.033111199414e+02 
       2.969053345528e-01       1.924981056211e+02 
       3.069702753421e-01       1.817104706897e+02 
       3.174196137542e-01       1.710738911865e+02 
       3.282794715702e-01       1.610498041934e+02 
       3.395799056096e-01       1.518885800997e+02 
       3.513557350711e-01       1.433971214197e+02 
       3.636475927833e-01       1.352244094891e+02 
       3.765032789151e-01       1.272688447103e+02 
       3.899795293552e-01       1.196968485331e+02 
       4.041443620044e-01       1.126127306896e+02 
       4.190802433389e-01       1.058978328963e+02 
       4.348884432775e-01       9.942040279204e+01 
       4.516951515329e-01       9.320576118883e+01 
       4.696602737912e-01       8.728884301104e+01 
       4.889904268976e-01       8.159813014772e+01 
       5.099587390184e-01       7.608562045861e+01 
       5.329361138940e-01       7.074991531545e+01 
       5.584426935744e-01       6.554035950814e+01 
       5.872368103416e-01       6.041086526370e+01 
       6.204778556232e-01       5.530982172066e+01 
       6.600453496007e-01       5.015928688166e+01 
       7.092140218866e-01       4.485446223296e+01 
       7.741969427865e-01       3.924178293158e+01 
       8.677892628012e-01       3.312088832331e+01 
       1.016030592487e+00       2.641432922162e+01 
       1.251538136797e+00       1.983755596767e+01 
       1.573163238364e+00       1.467200575808e+01 
       1.980450548140e+00       1.090280340140e+01 
       2.493239362085e+00       8.095676962289e+00 
       3.138802390534e+00       5.962467137048e+00 
       3.951518092044e+00       4.326594493124e+00 
       4.974666541239e+00       3.076234445809e+00 
       6.262734123968e+00       2.134496338314e+00 
       7.884315135973e+00       1.441746559951e+00 
       9.925764679270e+00       9.469818487215e-01 
       1.249579738622e+01       6.051740736595e-01 
