# Matter power spectrum P(k) at redshift z=0.5
# for k=2.04681e-07 to 10.2689 h/Mpc,
# number of wavenumbers equal to 139
#    1:k (h/Mpc)              2:P (Mpc/h)^3        
       2.046806615315e-07       6.377605133142e-01 
       2.576776861049e-07       7.955319498090e-01 
       3.243969870898e-07       9.923334381993e-01 
       4.083916105568e-07       1.237820369402e+00 
       5.141345764935e-07       1.544036718320e+00 
       6.472570834297e-07       1.926005939929e+00 
       8.148483902934e-07       2.402468042253e+00 
       1.025833345300e-06       2.996798998683e+00 
       1.291447666664e-06       3.738157605705e+00 
       1.625836285565e-06       4.662916050934e+00 
       2.046806615315e-06       5.816444373119e+00 
       2.576776861049e-06       7.255336353848e+00 
       3.243969870898e-06       9.050186031356e+00 
       4.083916105568e-06       1.128905102460e+01 
       5.141345764935e-06       1.408177251828e+01 
       6.472570834297e-06       1.756536373148e+01 
       8.148483902934e-06       2.191073098766e+01 
       1.025833345300e-05       2.733105663941e+01 
       1.291447666664e-05       3.409225416543e+01 
       1.625836285565e-05       4.252600646313e+01 
       2.046806615315e-05       5.304602322678e+01 
       2.576776861049e-05       6.616830756913e+01 
       3.243969870898e-05       8.253641140695e+01 
       4.083916105568e-05       1.029528895655e+02 
       5.141345764935e-05       1.284184382982e+02 
       6.472570834297e-05       1.601805253407e+02 
       8.148483902934e-05       1.997936750715e+02 
       1.025833345300e-04       2.491939317110e+02 
       1.291447666664e-04       3.107903080995e+02 
       1.625836285565e-04       3.875760773854e+02 
       2.046806615315e-04       4.832622764063e+02 
       2.576776861049e-04       6.024342447136e+02 
       3.243969870898e-04       7.507286728693e+02 
       4.083916105568e-04       9.350227236652e+02 
       5.141345764935e-04       1.163618355556e+03 
       6.472570834297e-04       1.446395926513e+03 
       8.148483902934e-04       1.794902752807e+03 
       1.025833345300e-03       2.222319018929e+03 
       1.291447666664e-03       2.743158071495e+03 
       1.625836285565e-03       3.372441300756e+03 
       2.046806615315e-03       4.124166687822e+03 
       2.576776861049e-03       5.008899436582e+03 
       3.243969870898e-03       6.030208840587e+03 
       4.083916105568e-03       7.179988485495e+03 
       5.141345764935e-03       8.432520439069e+03 
       6.472570834297e-03       9.737903896311e+03 
       8.148483902934e-03       1.101570071038e+04 
       1.025833345300e-02       1.215001899255e+04 
       1.291447666664e-02       1.298927953561e+04 
       1.625836285558e-02       1.335781636292e+04 
       2.046806578118e-02       1.309396421704e+04 
       2.576753944861e-02       1.213277173695e+04 
       3.241299934655e-02       1.062720183241e+04 
       4.008011833820e-02       9.084830994348e+03 
       4.627208030992e-02       8.139861941974e+03 
       5.081930391008e-02       7.590439247829e+03 
       5.461300400152e-02       7.192875206294e+03 
       5.802117761372e-02       6.861824635411e+03 
       6.121133275281e-02       6.561400623062e+03 
       6.427356119319e-02       6.274257390999e+03 
       6.726250629622e-02       5.991909006422e+03 
       7.021437345621e-02       5.710929668583e+03 
       7.315485512894e-02       5.431116122268e+03 
       7.610322919074e-02       5.154384406203e+03 
       7.907465435619e-02       4.883958493581e+03 
       8.208153885776e-02       4.623684568941e+03 
       8.513439859865e-02       4.377420017824e+03 
       8.824241773240e-02       4.148494195109e+03 
       9.141382744754e-02       3.939259478543e+03 
       9.465616916735e-02       3.750755628814e+03 
       9.797648168319e-02       3.582510227122e+03 
       1.013814366941e-01       3.432496014264e+03 
       1.048774384073e-01       3.297266395654e+03 
       1.084706975101e-01       3.172288130018e+03 
       1.121672864963e-01       3.052477630930e+03 
       1.159731812018e-01       2.932913291338e+03 
       1.198942920278e-01       2.809640103330e+03 
       1.239364874174e-01       2.680416253664e+03 
       1.281056115472e-01       2.545205686394e+03 
       1.324074977944e-01       2.406233429156e+03 
       1.368479792710e-01       2.267511169383e+03 
       1.414328975409e-01       2.133893177236e+03 
       1.461681105233e-01       2.009877884096e+03 
       1.510595005126e-01       1.898464306167e+03 
       1.561129831990e-01       1.800369392928e+03 
       1.613345185470e-01       1.713830693283e+03 
       1.667301243714e-01       1.635095290841e+03 
       1.723058934357e-01       1.559539608366e+03 
       1.780680148940e-01       1.483156137325e+03 
       1.840228008894e-01       1.403917917301e+03 
       1.901767191295e-01       1.322437012941e+03 
       1.965364322718e-01       1.241541096513e+03 
       2.031088449865e-01       1.164890151807e+03 
       2.099011596222e-01       1.095264994449e+03 
       2.169209414996e-01       1.033345081635e+03 
       2.241761950041e-01       9.775528090262e+02 
       2.316754518666e-01       9.250299128711e+02 
       2.394278733222e-01       8.732415039591e+02 
       2.474433682523e-01       8.213045205468e+02 
       2.557327299721e-01       7.702174152417e+02 
       2.643077950720e-01       7.218616249066e+02 
       2.731816286977e-01       6.775263268590e+02 
       2.823687419627e-01       6.370428452742e+02 
       2.918853489002e-01       5.991097075665e+02 
       3.017496726666e-01       5.624462204454e+02 
       3.119823137871e-01       5.267508220805e+02 
       3.226066974303e-01       4.926473243085e+02 
       3.336496224527e-01       4.607925701509e+02 
       3.451419429759e-01       4.311356012289e+02 
       3.571194245901e-01       4.030643196130e+02 
       3.696238335539e-01       3.761301584943e+02 
       3.827043411282e-01       3.504117440045e+02 
       3.964193605703e-01       3.261415109715e+02 
       4.108389880593e-01       3.032380468574e+02 
       4.260483023263e-01       2.814145487745e+02 
       4.421519107147e-01       2.605597099547e+02 
       4.592803469881e-01       2.407145296261e+02 
       4.775992933687e-01       2.217993253659e+02 
       4.973232405275e-01       2.036618233740e+02 
       5.187363634252e-01       1.862391275613e+02 
       5.422255995110e-01       1.694507618249e+02 
       5.683353206990e-01       1.531687771875e+02 
       5.978622892275e-01       1.372804639533e+02 
       6.320305110075e-01       1.216317866203e+02 
       6.728360555646e-01       1.060322064676e+02 
       7.237819189506e-01       9.022693121242e+01 
       7.915680074288e-01       7.388210610387e+01 
       8.900661939632e-01       5.668922207558e+01 
       1.047100438977e+00       3.907126571950e+01 
       1.294247447427e+00       2.384103836207e+01 
       1.627534855538e+00       1.383730782397e+01 
       2.048915798232e+00       7.935724489164e+00 
       2.579432076198e+00       4.512754397068e+00 
       3.247312588687e+00       2.546731173811e+00 
       4.088124337937e+00       1.427315067288e+00 
       5.146643615603e+00       7.949205054253e-01 
       6.479240433131e+00       4.401837222658e-01 
       8.156880430392e+00       2.424719739600e-01 
       1.026890405479e+01       1.329205162153e-01 
