# Matter power spectrum P(k) at redshift z=1.5
# for k=1.85651e-07 to 11.7278 h/Mpc,
# number of wavenumbers equal to 140
#    1:k (h/Mpc)              2:P (Mpc/h)^3        
       1.856510862255e-07       6.314977856449e-01 
       2.337208701765e-07       7.834329468722e-01 
       2.942371427318e-07       9.719229362235e-01 
       3.704226160788e-07       1.205762659194e+00 
       4.663344444848e-07       1.495863030563e+00 
       5.870802825569e-07       1.855760074465e+00 
       7.390902864741e-07       2.302246511930e+00 
       9.304595432525e-07       2.856155303343e+00 
       1.171379163647e-06       3.543331705460e+00 
       1.474678995961e-06       4.395839197996e+00 
       1.856510862255e-06       5.453455539767e+00 
       2.337208701765e-06       6.765528756175e+00 
       2.942371427318e-06       8.393279639029e+00 
       3.704226160788e-06       1.041265816104e+01 
       4.663344444848e-06       1.291788701341e+01 
       5.870802825569e-06       1.602585749297e+01 
       7.390902864741e-06       1.988158258537e+01 
       9.304595432525e-06       2.466496118227e+01 
       1.171379163647e-05       3.059916812250e+01 
       1.474678995961e-05       3.796105955406e+01 
       1.856510862255e-05       4.709407541981e+01 
       2.337208701765e-05       5.842423371186e+01 
       2.942371427318e-05       7.247994824156e+01 
       3.704226160788e-05       8.991656617016e+01 
       4.663344444848e-05       1.115467142718e+02 
       5.870802825569e-05       1.383777603805e+02 
       7.390902864741e-05       1.716579235406e+02 
       9.304595432525e-05       2.129327663243e+02 
       1.171379163647e-04       2.641138934696e+02 
       1.474678995961e-04       3.275614982566e+02 
       1.856510862255e-04       4.061816297782e+02 
       2.337208701765e-04       5.035371555135e+02 
       2.942371427318e-04       6.239675172870e+02 
       3.704226160788e-04       7.727055004798e+02 
       4.663344444848e-04       9.559689146301e+02 
       5.870802825569e-04       1.180993442920e+03 
       7.390902864741e-04       1.455966716491e+03 
       9.304595432525e-04       1.789826840340e+03 
       1.171379163647e-03       2.191865554944e+03 
       1.474678995961e-03       2.670935641886e+03 
       1.856510862255e-03       3.233928175936e+03 
       2.337208701765e-03       3.883533627589e+03 
       2.942371427318e-03       4.615436616436e+03 
       3.704226160788e-03       5.414919318273e+03 
       4.663344444848e-03       6.252785171121e+03 
       5.870802825569e-03       7.081469962914e+03 
       7.390902864741e-03       7.831820925487e+03 
       9.304595432525e-03       8.411193010918e+03 
       1.171379163647e-02       8.705124219820e+03 
       1.474678995961e-02       8.588471488644e+03 
       1.856510858471e-02       7.959073077063e+03 
       2.337204631670e-02       6.810557099238e+03 
       2.941624784861e-02       5.333866117355e+03 
       3.672377712065e-02       3.976080167948e+03 
       4.336858320066e-02       3.234667196091e+03 
       4.812792473926e-02       2.923936933735e+03 
       5.197227690010e-02       2.756101617438e+03 
       5.536742711499e-02       2.640357665111e+03 
       5.851414144634e-02       2.542035164600e+03 
       6.151578441938e-02       2.444707157814e+03 
       6.443312328356e-02       2.340100411052e+03 
       6.730548888989e-02       2.224652848329e+03 
       7.016027917135e-02       2.098031579447e+03 
       7.301773996010e-02       1.962272335343e+03 
       7.589358616557e-02       1.821090215459e+03 
       7.880053852842e-02       1.679212764151e+03 
       8.174927409409e-02       1.541715472560e+03 
       8.474904018996e-02       1.413398534827e+03 
       8.780806547235e-02       1.298263267037e+03 
       9.093384337044e-02       1.199134843330e+03 
       9.413333235791e-02       1.117446604353e+03 
       9.741310028596e-02       1.053166136610e+03 
       1.007794300401e-01       1.004821841091e+03 
       1.042383977966e-01       9.695989535840e+02 
       1.077959314538e-01       9.435147856206e+02 
       1.114578544631e-01       9.217334909198e+02 
       1.152299187728e-01       8.990991099696e+02 
       1.191178295945e-01       8.709154349540e+02 
       1.231272640462e-01       8.338735200484e+02 
       1.272638852838e-01       7.868756891904e+02 
       1.315333534395e-01       7.314244648890e+02 
       1.359413344932e-01       6.713290649444e+02 
       1.404935080788e-01       6.117322460669e+02 
       1.451955751430e-01       5.577562497493e+02 
       1.500532663287e-01       5.132208435341e+02 
       1.550723519189e-01       4.797943653963e+02 
       1.602586541623e-01       4.566975726492e+02 
       1.656180627828e-01       4.409174098238e+02 
       1.711565544722e-01       4.279231658574e+02 
       1.768802171558e-01       4.129316659118e+02 
       1.827952798244e-01       3.925455560121e+02 
       1.889081487369e-01       3.661188561905e+02 
       1.952254508215e-01       3.360009523775e+02 
       2.017540851555e-01       3.063344029426e+02 
       2.085012834848e-01       2.810318486356e+02 
       2.154746808729e-01       2.620463981445e+02 
       2.226823977569e-01       2.486952067757e+02 
       2.301331349549e-01       2.381753383594e+02 
       2.378362835383e-01       2.270662707052e+02 
       2.458020519763e-01       2.132410420665e+02 
       2.540416136268e-01       1.970539131041e+02 
       2.625672785256e-01       1.808297596992e+02 
       2.713926945872e-01       1.670012338415e+02 
       2.805330848710e-01       1.563864273901e+02 
       2.900055296133e-01       1.478276192503e+02 
       2.998293044686e-01       1.393211714801e+02 
       3.100262901183e-01       1.297447092787e+02 
       3.206214734899e-01       1.196819870721e+02 
       3.316435678804e-01       1.105419509766e+02 
       3.431257892048e-01       1.029792993704e+02 
       3.551068397661e-01       9.634064959787e+01 
       3.676321715548e-01       8.962230930464e+01 
       3.807556315867e-01       8.269815307795e+01 
       3.945416378330e-01       7.623914241792e+01 
       4.090681053521e-01       7.056836320828e+01 
       4.244304545195e-01       6.525051125578e+01 
       4.407472154977e-01       5.994330929817e+01 
       4.581680477578e-01       5.489878246276e+01 
       4.768855199959e-01       5.026875434147e+01 
       4.971529404436e-01       4.580142345209e+01 
       5.193122957432e-01       4.147309676678e+01 
       5.438398294221e-01       3.737701978653e+01 
       5.714239958910e-01       3.338541135364e+01 
       6.031064265945e-01       2.950583571176e+01 
       6.405541079463e-01       2.568059453698e+01 
       6.866260309819e-01       2.186253909309e+01 
       7.466497912884e-01       1.797765232241e+01 
       8.314439725066e-01       1.395507777806e+01 
       9.634927286814e-01       9.826255276661e+00 
       1.176392240234e+00       6.071209552367e+00 
       1.476531464714e+00       3.480898020783e+00 
       1.858731321413e+00       1.965355209485e+00 
       2.340003524609e+00       1.101327795446e+00 
       2.945889900380e+00       6.130136951426e-01 
       3.708655655936e+00       3.391259674055e-01 
       4.668920848852e+00       1.865592968482e-01 
       5.877823102275e+00       1.021032432199e-01 
       7.399740869485e+00       5.561677559204e-02 
       9.315721821287e+00       3.016272085132e-02 
       1.172779893002e+01       1.629170461287e-02 
