# Matter power spectrum P(k) at redshift z=1.5
# for k=1.93136e-07 to 12.1985 h/Mpc,
# number of wavenumbers equal to 140
#    1:k (h/Mpc)              2:P (Mpc/h)^3        
       1.931363509484e-07       3.977674266728e-01 
       2.431442601501e-07       4.961685301744e-01 
       3.061004878349e-07       6.189124440433e-01 
       3.853576826979e-07       7.720211781359e-01 
       4.851365793785e-07       9.630064875511e-01 
       6.107507679705e-07       1.201238411482e+00 
       7.688896620709e-07       1.498404981001e+00 
       9.679747344468e-07       1.869085650810e+00 
       1.218607991170e-06       2.331466587670e+00 
       1.534136567099e-06       2.908232907056e+00 
       1.931363509484e-06       3.627681629039e+00 
       2.431442601501e-06       4.525109952755e+00 
       3.061004878349e-06       5.644546950422e+00 
       3.853576826979e-06       7.040913615799e+00 
       4.851365793785e-06       8.782717205952e+00 
       6.107507679705e-06       1.095541198065e+01 
       7.688896620709e-06       1.366559105882e+01 
       9.679747344468e-06       1.704621473736e+01 
       1.218607991170e-05       2.126313114094e+01 
       1.534136567099e-05       2.652320787799e+01 
       1.931363509484e-05       3.308447116213e+01 
       2.431442601501e-05       4.126874499875e+01 
       3.061004878349e-05       5.147740084064e+01 
       3.853576826979e-05       6.421097143070e+01 
       4.851365793785e-05       8.009355346108e+01 
       6.107507679705e-05       9.990312238338e+01 
       7.688896620709e-05       1.246091007046e+02 
       9.679747344468e-05       1.554187372816e+02 
       1.218607991170e-04       1.938340143336e+02 
       1.534136567099e-04       2.417207909428e+02 
       1.931363509484e-04       3.013914972219e+02 
       2.431442601501e-04       3.757015215143e+02 
       3.061004878349e-04       4.681568530112e+02 
       3.853576826979e-04       5.830257387073e+02 
       4.851365793785e-04       7.254395511678e+02 
       6.107507679705e-04       9.014588161846e+02 
       7.688896620709e-04       1.118073667424e+03 
       9.679747344468e-04       1.383106794528e+03 
       1.218607991170e-03       1.704968116935e+03 
       1.534136567099e-03       2.092110013064e+03 
       1.931363509484e-03       2.551926292423e+03 
       2.431442601501e-03       3.089063134671e+03 
       3.061004878349e-03       3.703181997084e+03 
       3.853576826979e-03       4.386075700843e+03 
       4.851365793785e-03       5.118282159981e+03 
       6.107507679705e-03       5.865692483650e+03 
       7.688896620709e-03       6.576772259612e+03 
       9.679747344468e-03       7.181178630238e+03 
       1.218607991170e-02       7.591509241672e+03 
       1.534136567095e-02       7.711898630178e+03 
       1.931363489046e-02       7.460923346632e+03 
       2.431428132157e-02       6.817438225934e+03 
       3.059117011448e-02       5.883219880838e+03 
       3.794021513599e-02       4.945281806482e+03 
       4.404630151512e-02       4.367585840902e+03 
       4.849156536841e-02       4.039613182464e+03 
       5.217171856473e-02       3.805661259810e+03 
       5.546438844235e-02       3.612504984702e+03 
       5.853906194859e-02       3.438566735123e+03 
       6.148592007170e-02       3.273753205303e+03 
       6.435924010685e-02       3.113290934522e+03 
       6.719477608310e-02       2.955339385279e+03 
       7.001778291263e-02       2.799845159984e+03 
       7.284713766740e-02       2.647863761190e+03 
       7.569763561399e-02       2.501075324243e+03 
       7.858135350346e-02       2.361393154066e+03 
       8.150850143209e-02       2.230633178496e+03 
       8.448797775342e-02       2.110238843574e+03 
       8.752774316578e-02       2.001068076299e+03 
       9.063508015161e-02       1.903250529284e+03 
       9.381677714929e-02       1.816123652325e+03 
       9.707926178193e-02       1.738255409930e+03 
       1.004286986669e-01       1.667561687785e+03 
       1.038710620096e-01       1.601524514043e+03 
       1.074121898762e-01       1.537505763210e+03 
       1.110578249313e-01       1.473131276205e+03 
       1.148136450605e-01       1.406688715897e+03 
       1.186852863932e-01       1.337453226828e+03 
       1.226783606482e-01       1.265844255606e+03 
       1.267984683196e-01       1.193339033059e+03 
       1.310512089623e-01       1.122129778349e+03 
       1.354421896565e-01       1.054588980322e+03 
       1.399770326225e-01       9.926744988891e+02 
       1.446613828809e-01       9.374303242385e+02 
       1.495009168120e-01       8.887179810300e+02 
       1.545013524378e-01       8.452604379750e+02 
       1.596684622332e-01       8.050129480901e+02 
       1.650080892600e-01       7.657900203910e+02 
       1.705261674118e-01       7.259749689849e+02 
       1.762287465506e-01       6.850531485082e+02 
       1.821220233222e-01       6.437232920418e+02 
       1.882123784489e-01       6.035015573439e+02 
       1.945064213272e-01       5.659824574727e+02 
       2.010110428169e-01       5.321044816061e+02 
       2.077334771935e-01       5.017687674442e+02 
       2.146813743786e-01       4.739831148135e+02 
       2.218628837611e-01       4.474472049180e+02 
       2.292867512083e-01       4.212605200242e+02 
       2.369624312523e-01       3.953407794617e+02 
       2.449002169639e-01       3.702990833553e+02 
       2.531113907219e-01       3.468840025721e+02 
       2.616084000110e-01       3.254133756660e+02 
       2.704050636053e-01       3.055994207998e+02 
       2.795168151093e-01       2.868509736144e+02 
       2.889609929899e-01       2.687600991684e+02 
       2.987571891258e-01       2.513472742413e+02 
       3.089276718343e-01       2.348836222505e+02 
       3.194979047274e-01       2.195225982782e+02 
       3.304971902579e-01       2.051347073899e+02 
       3.419594774108e-01       1.914759388763e+02 
       3.539243881912e-01       1.784381872452e+02 
       3.664385397303e-01       1.660746946656e+02 
       3.795572717754e-01       1.544219821409e+02 
       3.933469393070e-01       1.434013092980e+02 
       4.078880075144e-01       1.329144353158e+02 
       4.232793095176e-01       1.229361167156e+02 
       4.396440283357e-01       1.134582108907e+02 
       4.571383031523e-01       1.044274356822e+02 
       4.759639495750e-01       9.578931589408e+01 
       4.963878508183e-01       8.751225625383e+01 
       5.187725943652e-01       7.954851397104e+01 
       5.436269367116e-01       7.184427848401e+01 
       5.716931017170e-01       6.434393754728e+01 
       6.041067762066e-01       5.697622314586e+01 
       6.427109029064e-01       4.965417206406e+01 
       6.907204173078e-01       4.226321297693e+01 
       7.542433388465e-01       3.465351818294e+01 
       8.458705685310e-01       2.667913442410e+01 
       9.911689852140e-01       1.849564964353e+01 
       1.221658908317e+00       1.131795457355e+01 
       1.535729354586e+00       6.550328929004e+00 
       1.933328386357e+00       3.744328850491e+00 
       2.433916094495e+00       2.122925133145e+00 
       3.064118821466e+00       1.194825569812e+00 
       3.857497049101e+00       6.680010928236e-01 
       4.856301061034e+00       3.712034352828e-01 
       6.113720813059e+00       2.051339411177e-01 
       7.696718492175e+00       1.127861461496e-01 
       9.689594497225e+00       6.172263377566e-02 
       1.219847674254e+01       3.363253792658e-02 
