# Matter power spectrum P(k) at redshift z=0.5
# for k=2.06227e-07 to 10.3464 h/Mpc,
# number of wavenumbers equal to 139
#    1:k (h/Mpc)              2:P (Mpc/h)^3        
       2.062269356606e-07       7.506729796337e-01 
       2.596243298995e-07       9.363770987799e-01 
       3.268476664305e-07       1.168021354891e+00 
       4.114768330550e-07       1.456970580041e+00 
       5.180186414976e-07       1.817401077675e+00 
       6.521468315644e-07       2.266996133983e+00 
       8.210042184774e-07       2.827813586439e+00 
       1.033583073831e-06       3.527368013637e+00 
       1.301203996847e-06       4.399980638547e+00 
       1.638118777559e-06       5.488463172884e+00 
       2.062269356606e-06       6.846218206558e+00 
       2.596243298995e-06       8.539859184251e+00 
       3.268476664305e-06       1.065247849013e+01 
       4.114768330550e-06       1.328772393858e+01 
       5.180186414976e-06       1.657488359991e+01 
       6.521468315644e-06       2.067522828360e+01 
       8.210042184774e-06       2.578992256703e+01 
       1.033583073831e-05       3.216989192560e+01 
       1.301203996847e-05       4.012812895362e+01 
       1.638118777559e-05       5.005504021129e+01 
       2.062269356606e-05       6.243758228625e+01 
       2.596243298995e-05       7.788311725658e+01 
       3.268476664305e-05       9.714914091840e+01 
       4.114768330550e-05       1.211803086043e+02 
       5.180186414976e-05       1.511545087830e+02 
       6.521468315644e-05       1.885401141954e+02 
       8.210042184774e-05       2.351669626515e+02 
       1.033583073831e-04       2.933140476359e+02 
       1.301203996847e-04       3.658172438238e+02 
       1.638118777559e-04       4.562004701565e+02 
       2.062269356606e-04       5.688331526112e+02 
       2.596243298995e-04       7.091150919973e+02 
       3.268476664305e-04       8.836859991550e+02 
       4.114768330550e-04       1.100650149065e+03 
       5.180186414976e-04       1.369796840738e+03 
       6.521468315644e-04       1.702786794349e+03 
       8.210042184774e-04       2.113264722037e+03 
       1.033583073831e-03       2.616831255076e+03 
       1.301203996847e-03       3.230708495320e+03 
       1.638118777559e-03       3.972795755123e+03 
       2.062269356606e-03       4.859895389852e+03 
       2.596243298995e-03       5.904894672510e+03 
       3.268476664305e-03       7.112573401844e+03 
       4.114768330550e-03       8.474056109343e+03 
       5.180186414976e-03       9.959649126492e+03 
       6.521468315644e-03       1.151069685490e+04 
       8.210042184774e-03       1.303141264563e+04 
       1.033583073831e-02       1.438195644718e+04 
       1.301203996847e-02       1.537678283223e+04 
       1.638118777552e-02       1.579748419904e+04 
       2.062269324422e-02       1.543965851223e+04 
       2.596222678161e-02       1.421906758639e+04 
       3.265996132245e-02       1.233128463141e+04 
       4.042130522371e-02       1.042339827797e+04 
       4.673884033223e-02       9.285374196181e+03 
       5.136630309899e-02       8.651513408855e+03 
       5.521864566078e-02       8.207450976493e+03 
       5.867554659075e-02       7.844081189827e+03 
       6.190914169713e-02       7.515461322543e+03 
       6.501173195026e-02       7.199120129164e+03 
       6.803917916479e-02       6.883841837627e+03 
       7.102843528973e-02       6.564956737221e+03 
       7.400568827232e-02       6.242100421478e+03 
       7.699056648600e-02       5.917871390459e+03 
       7.999849003065e-02       5.596821663068e+03 
       8.304207106555e-02       5.284570269774e+03 
       8.613199096232e-02       4.986979869310e+03 
       8.927757284243e-02       4.709401512379e+03 
       9.248716818877e-02       4.456020719255e+03 
       9.576842533875e-02       4.229341212737e+03 
       9.912848029698e-02       4.029837677854e+03 
       1.025740948914e-01       3.855801794083e+03 
       1.061117582690e-01       3.703405821295e+03 
       1.097477622622e-01       3.567015514866e+03 
       1.134882577502e-01       3.439782547851e+03 
       1.173392969707e-01       3.314521947205e+03 
       1.213068653263e-01       3.184814593746e+03 
       1.253969052977e-01       3.046170628044e+03 
       1.296153344649e-01       2.896987583322e+03 
       1.339680592181e-01       2.738994780782e+03 
       1.384609854751e-01       2.576952090775e+03 
       1.431000275353e-01       2.417571872725e+03 
       1.478911160897e-01       2.267887879533e+03 
       1.528402063287e-01       2.133491886282e+03 
       1.579532870449e-01       2.017106409740e+03 
       1.632363915987e-01       1.917868059725e+03 
       1.686956115969e-01       1.831538174311e+03 
       1.743371141206e-01       1.751686698224e+03 
       1.801671633323e-01       1.671666326325e+03 
       1.861921472874e-01       1.586851622728e+03 
       1.924186107790e-01       1.496289021428e+03 
       1.988532950602e-01       1.402919004568e+03 
       2.055031853197e-01       1.312105960066e+03 
       2.123755668475e-01       1.229099715920e+03 
       2.194780909256e-01       1.156648399709e+03 
       2.268188516247e-01       1.093895132561e+03 
       2.344064749095e-01       1.037063307918e+03 
       2.422502217544e-01       9.816113242178e+02 
       2.503601073913e-01       9.247478737200e+02 
       2.587470393731e-01       8.668082987078e+02 
       2.674229778811e-01       8.105591901691e+02 
       2.764011226977e-01       7.589406251586e+02 
       2.856961325710e-01       7.129339878827e+02 
       2.953243844342e-01       6.710974387686e+02 
       3.053042822515e-01       6.309937340292e+02 
       3.156566283671e-01       5.912433493555e+02 
       3.264050744511e-01       5.523979736803e+02 
       3.375766749214e-01       5.159245601624e+02 
       3.492025737870e-01       4.824826057810e+02 
       3.613188672427e-01       4.513378557633e+02 
       3.739677006955e-01       4.213879285929e+02 
       3.871986827727e-01       3.924036682050e+02 
       4.010707343783e-01       3.649411459391e+02 
       4.156545447922e-01       3.392588077197e+02 
       4.310358905378e-01       3.149221649145e+02 
       4.473202059979e-01       2.915411831919e+02 
       4.646390127035e-01       2.692255989448e+02 
       4.831591817325e-01       2.480504695802e+02 
       5.030966449985e-01       2.277642733261e+02 
       5.247373345618e-01       2.082351166894e+02 
       5.484703339358e-01       1.894498490519e+02 
       5.748426177826e-01       1.712385319984e+02 
       6.046540168278e-01       1.534694905866e+02 
       6.391318525234e-01       1.359829551987e+02 
       6.802747873722e-01       1.185608876673e+02 
       7.315843720785e-01       1.009222076018e+02 
       7.997450542379e-01       8.269703509867e+01 
       8.985800733922e-01       6.353975969695e+01 
       1.055919908452e+00       4.388858083245e+01 
       1.304132547281e+00       2.681772097991e+01 
       1.639819560649e+00       1.556225975555e+01 
       2.064377711529e+00       8.922040689178e+00 
       2.598897456843e+00       5.072155292416e+00 
       3.271818051022e+00       2.861690345644e+00 
       4.118974887199e+00       1.603469734791e+00 
       5.185482156036e+00       8.928462505940e-01 
       6.528135258639e+00       4.943193513411e-01 
       8.218435368730e+00       2.722467275358e-01 
       1.034639713088e+01       1.492194783912e-01 
