# Matter power spectrum P(k) at redshift z=2.5
# for k=2.03778e-07 to 10.2237 h/Mpc,
# number of wavenumbers equal to 139
#    1:k (h/Mpc)              2:P (Mpc/h)^3        
       2.037780685986e-07       1.373010684420e-01 
       2.565413889251e-07       1.719190158996e-01 
       3.229664736948e-07       2.152652440858e-01 
       4.065907008919e-07       2.695404290299e-01 
       5.118673655520e-07       3.375001064275e-01 
       6.444028339616e-07       4.225945701377e-01 
       8.112551031064e-07       5.291440416183e-01 
       1.021309664748e-06       6.625580063384e-01 
       1.285752690263e-06       8.296098510114e-01 
       1.618666735054e-06       1.038780745027e+00 
       2.037780685986e-06       1.300690223557e+00 
       2.565413889251e-06       1.628635332167e+00 
       3.229664736948e-06       2.039265700865e+00 
       4.065907008919e-06       2.553428817109e+00 
       5.118673655520e-06       3.197228394333e+00 
       6.444028339616e-06       4.003349552135e+00 
       8.112551031064e-06       5.012718030073e+00 
       1.021309664748e-05       6.276577579992e+00 
       1.285752690263e-05       7.859090820145e+00 
       1.618666735054e-05       9.840595187140e+00 
       2.037780685986e-05       1.232167857240e+01 
       2.565413889251e-05       1.542828000761e+01 
       3.229664736948e-05       1.931807141200e+01 
       4.065907008919e-05       2.418843846193e+01 
       5.118673655520e-05       3.028645400531e+01 
       6.444028339616e-05       3.792132719881e+01 
       8.112551031064e-05       4.747991431557e+01 
       1.021309664748e-04       5.944598809776e+01 
       1.285752690263e-04       7.442406530944e+01 
       1.618666735054e-04       9.316865290276e+01 
       2.037780685986e-04       1.166197190497e+02 
       2.565413889251e-04       1.459448894803e+02 
       3.229664736948e-04       1.825880698563e+02 
       4.065907008919e-04       2.283225290740e+02 
       5.118673655520e-04       2.853035127930e+02 
       6.444028339616e-04       3.561110669277e+02 
       8.112551031064e-04       4.437690165530e+02 
       1.021309664748e-03       5.517238743092e+02 
       1.285752690263e-03       6.837679879045e+02 
       1.618666735054e-03       8.438748071915e+02 
       2.037780685986e-03       1.035847133874e+03 
       2.565413889251e-03       1.262655133080e+03 
       3.229664736948e-03       1.525514774436e+03 
       4.065907008919e-03       1.822685050737e+03 
       5.118673655520e-03       2.147913131711e+03 
       6.444028339616e-03       2.486908551187e+03 
       8.112551031064e-03       2.822189426689e+03 
       1.021309664748e-02       3.122980660803e+03 
       1.285752690263e-02       3.350605925249e+03 
       1.618666735046e-02       3.460209329499e+03 
       2.037780646572e-02       3.410305709122e+03 
       2.565389994538e-02       3.183257832704e+03 
       3.226917003929e-02       2.815062352344e+03 
       3.988736323039e-02       2.430049592323e+03 
       4.602028055491e-02       2.188715335970e+03 
       5.052903129641e-02       2.044684486989e+03 
       5.429393068933e-02       1.938545274115e+03 
       5.767780676584e-02       1.849318634230e+03 
       6.084608596400e-02       1.768190730093e+03 
       6.388785070058e-02       1.690932221978e+03 
       6.685718017735e-02       1.615498134670e+03 
       6.978993010507e-02       1.541076097309e+03 
       7.271155843848e-02       1.467621587854e+03 
       7.564117558993e-02       1.395578888279e+03 
       7.859381427376e-02       1.325679101856e+03 
       8.158178359748e-02       1.258772921119e+03 
       8.461551840335e-02       1.195685762184e+03 
       8.770413427220e-02       1.137093834559e+03 
       9.085580264117e-02       1.083423855257e+03 
       9.407801151328e-02       1.034782474485e+03 
       9.737775085369e-02       9.909202466086e+02 
       1.007616468905e-01       9.512357316706e+02 
       1.042360608155e-01       9.148240218608e+02 
       1.078071620941e-01       8.805725899587e+02 
       1.114809832982e-01       8.473023481541e+02 
       1.152634612730e-01       8.139412172484e+02 
       1.191604680824e-01       7.797053519470e+02 
       1.231778342776e-01       7.442497039574e+02 
       1.273213664319e-01       7.077446724634e+02 
       1.315968604909e-01       6.708452260050e+02 
       1.360101122185e-01       6.345432284881e+02 
       1.405669258476e-01       5.999294476510e+02 
       1.452731219294e-01       5.679208209875e+02 
       1.501345453065e-01       5.390246089832e+02 
       1.551570740890e-01       5.132041110688e+02 
       1.603466304826e-01       4.898894718439e+02 
       1.657091943046e-01       4.681435639446e+02 
       1.712508200075e-01       4.469517392365e+02 
       1.769776580240e-01       4.255538277086e+02 
       1.828959812439e-01       4.036978616220e+02 
       1.890122174362e-01       3.817000187611e+02 
       1.953329884451e-01       3.602678047243e+02 
       2.018651570217e-01       3.401572415001e+02 
       2.086158822121e-01       3.218236419437e+02 
       2.155926843210e-01       3.052325477237e+02 
       2.228035206166e-01       2.899193544955e+02 
       2.302568731580e-01       2.752639357297e+02 
       2.379618504287e-01       2.608300737760e+02 
       2.459283048704e-01       2.465715167679e+02 
       2.541669689709e-01       2.327788520078e+02 
       2.626896132951e-01       2.198152249456e+02 
       2.715092308319e-01       2.078391720756e+02 
       2.806402533205e-01       1.967138468722e+02 
       2.900988069393e-01       1.861499659848e+02 
       2.999030170247e-01       1.759442029034e+02 
       3.100733745643e-01       1.661034359939e+02 
       3.206331813805e-01       1.567607527253e+02 
       3.316090966629e-01       1.479931356469e+02 
       3.430318154935e-01       1.397363767587e+02 
       3.549369213084e-01       1.318669087867e+02 
       3.673659704605e-01       1.243281657432e+02 
       3.803678907449e-01       1.171454993920e+02 
       3.940008110355e-01       1.103366426784e+02 
       4.083344927822e-01       1.038603203990e+02 
       4.234536174160e-01       9.766432863448e+01 
       4.394623163606e-01       9.173347452794e+01 
       4.564905475110e-01       8.606116295480e+01 
       4.747032885766e-01       8.061684415089e+01 
       4.943141580381e-01       7.536865126417e+01 
       5.156062374454e-01       7.029547912096e+01 
       5.389650760360e-01       6.536682133906e+01 
       5.649332628965e-01       6.054610428513e+01 
       5.943052540953e-01       5.579308700304e+01 
       6.283020859135e-01       5.105422842878e+01 
       6.689161405323e-01       4.625835433348e+01 
       7.196464089375e-01       4.130414437289e+01 
       7.871903569643e-01       3.604409981583e+01 
       8.854214988428e-01       3.029260138240e+01 
       1.042122570421e+00       2.401879727620e+01 
       1.288499924073e+00       1.800051719536e+01 
       1.620363769572e+00       1.336027585288e+01 
       2.039889346116e+00       9.976030069782e+00 
       2.568068451875e+00       7.447535580977e+00 
       3.233006633258e+00       5.516987041525e+00 
       4.070114207108e+00       4.027671433061e+00 
       5.123970204233e+00       2.881421146529e+00 
       6.450696299385e+00       2.011483549858e+00 
       8.120945495062e+00       1.366381796649e+00 
       1.022366465153e+01       9.019713813294e-01 
