# Matter power spectrum P(k) at redshift z=1
# for k=1.82442e-07 to 11.5248 h/Mpc,
# number of wavenumbers equal to 140
#    1:k (h/Mpc)              2:P (Mpc/h)^3        
       1.824424593186e-07       7.318135076673e-01 
       2.296814482264e-07       9.128521041494e-01 
       2.891518117899e-07       1.138676664025e+00 
       3.640205637286e-07       1.420366495833e+00 
       4.582747380935e-07       1.771741745302e+00 
       5.769337133693e-07       2.210041433134e+00 
       7.263165126814e-07       2.756769226835e+00 
       9.143783148203e-07       3.438748441384e+00 
       1.151134096521e-06       4.289438026816e+00 
       1.449191966493e-06       5.350574105074e+00 
       1.824424593186e-06       6.674217584860e+00 
       2.296814482264e-06       8.325308302191e+00 
       2.891518117899e-06       1.038485097636e+01 
       3.640205637286e-06       1.295388923555e+01 
       4.582747380935e-06       1.615846259909e+01 
       5.769337133693e-06       2.015578942617e+01 
       7.263165126814e-06       2.514197881610e+01 
       9.143783148203e-06       3.136164910318e+01 
       1.151134096521e-05       3.911992344105e+01 
       1.449191966493e-05       4.879738817852e+01 
       1.824424593186e-05       6.086874244548e+01 
       2.296814482264e-05       7.592604296219e+01 
       2.891518117899e-05       9.470766302691e+01 
       3.640205637286e-05       1.181343439277e+02 
       4.582747380935e-05       1.473540237442e+02 
       5.769337133693e-05       1.837974776913e+02 
       7.263165126814e-05       2.292471755435e+02 
       9.143783148203e-05       2.859220986776e+02 
       1.151134096521e-04       3.565814400072e+02 
       1.449191966493e-04       4.446498837652e+02 
       1.824424593186e-04       5.543660581741e+02 
       2.296814482264e-04       6.909529622235e+02 
       2.891518117899e-04       8.608034820367e+02 
       3.640205637286e-04       1.071664232021e+03 
       4.582747380935e-04       1.332786808407e+03 
       5.769337133693e-04       1.655001005722e+03 
       7.263165126814e-04       2.050657671510e+03 
       9.143783148203e-04       2.533382197770e+03 
       1.151134096521e-03       3.117499655997e+03 
       1.449191966493e-03       3.816774626893e+03 
       1.824424593186e-03       4.642123283902e+03 
       2.296814482264e-03       5.598370869249e+03 
       2.891518117899e-03       6.679942638292e+03 
       3.640205637286e-03       7.865756008838e+03 
       4.582747380935e-03       9.113152962003e+03 
       5.769337133693e-03       1.035223632020e+04 
       7.263165126814e-03       1.148137394153e+04 
       9.143783148203e-03       1.236496886936e+04 
       1.151134096521e-02       1.283664218772e+04 
       1.449191966492e-02       1.271597699640e+04 
       1.824424588869e-02       1.185676624008e+04 
       2.296810009977e-02       1.024933924490e+04 
       2.890722464673e-02       8.161972575321e+03 
       3.607155778715e-02       6.226329875275e+03 
       4.253335878695e-02       5.153508023312e+03 
       4.716491381743e-02       4.683765291331e+03 
       5.091465932736e-02       4.415280139293e+03 
       5.423028219470e-02       4.220391849975e+03 
       5.730541718237e-02       4.050322933296e+03 
       6.024005642150e-02       3.882318865282e+03 
       6.309311013406e-02       3.705334445769e+03 
       6.590276788350e-02       3.515038771101e+03 
       6.869566583631e-02       3.311596453159e+03 
       7.149150710300e-02       3.098351167999e+03 
       7.430559859128e-02       2.880786323990e+03 
       7.715034001783e-02       2.665558823607e+03 
       8.003614570040e-02       2.459577318523e+03 
       8.297204045583e-02       2.269169605272e+03 
       8.596605879148e-02       2.099404303716e+03 
       8.902552031529e-02       1.953613251910e+03 
       9.215722441295e-02       1.833123010038e+03 
       9.536759059646e-02       1.737168415441e+03 
       9.866276127097e-02       1.662948456337e+03 
       1.020486778653e-01       1.605809435744e+03 
       1.055311376817e-01       1.559592598906e+03 
       1.091158365453e-01       1.517226203306e+03 
       1.128084008572e-01       1.471628458165e+03 
       1.166144116943e-01       1.416881890917e+03 
       1.205394229501e-01       1.349463536901e+03 
       1.245889750888e-01       1.269154129620e+03 
       1.287686057984e-01       1.179225021201e+03 
       1.330838586421e-01       1.085692674897e+03 
       1.375402906832e-01       9.957829589976e+02 
       1.421434799852e-01       9.160766340705e+02 
       1.468990338343e-01       8.509079981128e+02 
       1.518125985067e-01       8.014117515203e+02 
       1.568898713785e-01       7.653379884229e+02 
       1.621366161679e-01       7.376192728079e+02 
       1.675586820881e-01       7.116977272164e+02 
       1.731620276850e-01       6.815262096867e+02 
       1.789527501361e-01       6.437292487192e+02 
       1.849371207967e-01       5.989236883658e+02 
       1.911216278052e-01       5.513072439229e+02 
       1.975130266101e-01       5.065578180714e+02 
       2.041183993588e-01       4.691549162147e+02 
       2.109452242201e-01       4.404895110783e+02 
       2.180014558919e-01       4.185198757828e+02 
       2.252956188136e-01       3.990067291452e+02 
       2.328369149604e-01       3.778375562835e+02 
       2.406353485882e-01       3.533205095097e+02 
       2.487018709495e-01       3.269461523000e+02 
       2.570485488660e-01       3.019688095664e+02 
       2.656887621860e-01       2.809034072822e+02 
       2.746374366690e-01       2.638568642122e+02 
       2.839113208553e-01       2.487994823714e+02 
       2.935293181737e-01       2.334271782035e+02 
       3.035128892026e-01       2.170704803692e+02 
       3.138865439969e-01       2.009397943776e+02 
       3.246784513450e-01       1.865565392783e+02 
       3.359212015885e-01       1.741320373068e+02 
       3.476527736115e-01       1.625897109796e+02 
       3.599177769159e-01       1.510056444646e+02 
       3.727690697710e-01       1.396122603637e+02 
       3.862698998448e-01       1.291400445154e+02 
       4.004967838351e-01       1.196293474966e+02 
       4.155434534744e-01       1.105163887641e+02 
       4.315263752981e-01       1.016344042825e+02 
       4.485926526912e-01       9.328841096613e+01 
       4.669316394818e-01       8.546497089069e+01 
       4.867925293608e-01       7.790850741510e+01 
       5.085119370346e-01       7.066365405494e+01 
       5.325589307862e-01       6.373542441623e+01 
       5.596121286472e-01       5.699471927759e+01 
       5.906992753181e-01       5.043085093182e+01 
       6.274671039929e-01       4.394666236655e+01 
       6.727440190461e-01       3.745899543388e+01 
       7.318095616785e-01       3.084359173591e+01 
       8.154000644327e-01       2.397424506447e+01 
       9.457976945132e-01       1.690482140034e+01 
       1.155822002347e+00       1.047345877702e+01 
       1.450970262212e+00       6.035454030255e+00 
       1.826563057439e+00       3.426571992642e+00 
       2.299506154287e+00       1.930780056790e+00 
       2.894906731844e+00       1.080630291647e+00 
       3.644471649492e+00       6.011082519338e-01 
       4.588117972109e+00       3.324983786792e-01 
       5.776098307397e+00       1.829741411306e-01 
       7.271676940204e+00       1.002146996868e-01 
       9.154498886380e+00       5.464750182105e-02 
       1.152483128031e+01       2.967836332489e-02 
