# Matter power spectrum P(k) at redshift z=1.5
# for k=1.93136e-07 to 12.1985 h/Mpc,
# number of wavenumbers equal to 140
#    1:k (h/Mpc)              2:P (Mpc/h)^3        
       1.931363509484e-07       3.977674266728e-01 
       2.431442601501e-07       4.961685301744e-01 
       3.061004878349e-07       6.189124440433e-01 
       3.853576826979e-07       7.720211781359e-01 
       4.851365793785e-07       9.630064875511e-01 
       6.107507679705e-07       1.201238411482e+00 
       7.688896620709e-07       1.498404981001e+00 
       9.679747344468e-07       1.869085650810e+00 
       1.218607991170e-06       2.331466587670e+00 
       1.534136567099e-06       2.908232907056e+00 
       1.931363509484e-06       3.627681629039e+00 
       2.431442601501e-06       4.525109952755e+00 
       3.061004878349e-06       5.644546950422e+00 
       3.853576826979e-06       7.040913615799e+00 
       4.851365793785e-06       8.782717205952e+00 
       6.107507679705e-06       1.095541198065e+01 
       7.688896620709e-06       1.366559105882e+01 
       9.679747344468e-06       1.704621473736e+01 
       1.218607991170e-05       2.126313114094e+01 
       1.534136567099e-05       2.652320787799e+01 
       1.931363509484e-05       3.308447116213e+01 
       2.431442601501e-05       4.126874499875e+01 
       3.061004878349e-05       5.147740084064e+01 
       3.853576826979e-05       6.421097143070e+01 
       4.851365793785e-05       8.009355346108e+01 
       6.107507679705e-05       9.990312238338e+01 
       7.688896620709e-05       1.246091007046e+02 
       9.679747344468e-05       1.554187372816e+02 
       1.218607991170e-04       1.938340143336e+02 
       1.534136567099e-04       2.417207909428e+02 
       1.931363509484e-04       3.013914972219e+02 
       2.431442601501e-04       3.757015215143e+02 
       3.061004878349e-04       4.681568530112e+02 
       3.853576826979e-04       5.830257387073e+02 
       4.851365793785e-04       7.254395511678e+02 
       6.107507679705e-04       9.014588161846e+02 
       7.688896620709e-04       1.118073667424e+03 
       9.679747344468e-04       1.383106794528e+03 
       1.218607991170e-03       1.704968116935e+03 
       1.534136567099e-03       2.092110013064e+03 
       1.931363509484e-03       2.551926292423e+03 
       2.431442601501e-03       3.089063134671e+03 
       3.061004878349e-03       3.703181997084e+03 
       3.853576826979e-03       4.386075700843e+03 
       4.851365793785e-03       5.118282159981e+03 
       6.107507679705e-03       5.859226454093e+03 
       7.688896620709e-03       6.567775190333e+03 
       9.679747344468e-03       7.169037757813e+03 
       1.218607991170e-02       7.575746408755e+03 
       1.534136567095e-02       7.692442672595e+03 
       1.931363489046e-02       7.438522755883e+03 
       2.431428132157e-02       6.794088603366e+03 
       3.059117011448e-02       5.862109761943e+03 
       3.794021513599e-02       4.929173261239e+03 
       4.404630151512e-02       4.355813511281e+03 
       4.849156536841e-02       4.030703615190e+03 
       5.217171856473e-02       3.798973037667e+03 
       5.546438844235e-02       3.607792956891e+03 
       5.853906194859e-02       3.435783501914e+03 
       6.148592007170e-02       3.272961608886e+03 
       6.435924010685e-02       3.114613076646e+03 
       6.719477608310e-02       2.958919642119e+03 
       7.001778291263e-02       2.805820240963e+03 
       7.284713766740e-02       2.656338183837e+03 
       7.569763561399e-02       2.512102657666e+03 
       7.858135350346e-02       2.374963961457e+03 
       8.150850143209e-02       2.246670440354e+03 
       8.448797775342e-02       2.128601205010e+03 
       8.752774316578e-02       2.021560685139e+03 
       9.063508015161e-02       1.925642701197e+03 
       9.381677714929e-02       1.840172077794e+03 
       9.707926178193e-02       1.763731025115e+03 
       1.004286986669e-01       1.694277502568e+03 
       1.038710620096e-01       1.629360580644e+03 
       1.074121898762e-01       1.566426422222e+03 
       1.110578249313e-01       1.503189403326e+03 
       1.148136450605e-01       1.438012867957e+03 
       1.186852863932e-01       1.370216883799e+03 
       1.226783606482e-01       1.300221395207e+03 
       1.267984683196e-01       1.229455507755e+03 
       1.310512089623e-01       1.160022982159e+03 
       1.354421896565e-01       1.094187484770e+03 
       1.399770326225e-01       1.033804535115e+03 
       1.446613828809e-01       9.798489852768e+02 
       1.495009168120e-01       9.321659246399e+02 
       1.545013524378e-01       8.895210859507e+02 
       1.596684622332e-01       8.499612894708e+02 
       1.650080892600e-01       8.114136938932e+02 
       1.705261674118e-01       7.723562456216e+02 
       1.762287465506e-01       7.323143800228e+02 
       1.821220233222e-01       6.919559023666e+02 
       1.882123784489e-01       6.527094976735e+02 
       1.945064213272e-01       6.160663621030e+02 
       2.010110428169e-01       5.828935951155e+02 
       2.077334771935e-01       5.530843604368e+02 
       2.146813743786e-01       5.257013299280e+02 
       2.218628837611e-01       4.995285038454e+02 
       2.292867512083e-01       4.737298597976e+02 
       2.369624312523e-01       4.482319088304e+02 
       2.449002169639e-01       4.236003569219e+02 
       2.531113907219e-01       4.005218631329e+02 
       2.616084000110e-01       3.792813155229e+02 
       2.704050636053e-01       3.596063230847e+02 
       2.795168151093e-01       3.409497584143e+02 
       2.889609929899e-01       3.229362327894e+02 
       2.987571891258e-01       3.055826145358e+02 
       3.089276718343e-01       2.891320223960e+02 
       3.194979047274e-01       2.737182486643e+02 
       3.304971902579e-01       2.592184257137e+02 
       3.419594774108e-01       2.454078060712e+02 
       3.539243881912e-01       2.321852770991e+02 
       3.664385397303e-01       2.195941484243e+02 
       3.795572717754e-01       2.076616059138e+02 
       3.933469393070e-01       1.963116637703e+02 
       4.078880075144e-01       1.854512786495e+02 
       4.232793095176e-01       1.750517446150e+02 
       4.396440283357e-01       1.650983747792e+02 
       4.571383031523e-01       1.555357246456e+02 
       4.759639495750e-01       1.463060443004e+02 
       4.963878508183e-01       1.373693434128e+02 
       5.187725943652e-01       1.286684136824e+02 
       5.436269367116e-01       1.201360486249e+02 
       5.716931017170e-01       1.116959088506e+02 
       6.041067762066e-01       1.032459236255e+02 
       6.427109029064e-01       9.464949592985e+01 
       6.907204173078e-01       8.570862751982e+01 
       7.542433388465e-01       7.612506492958e+01 
       8.458705685310e-01       6.548012244292e+01 
       9.911689852140e-01       5.349746003262e+01 
       1.221658908317e+00       4.128306933489e+01 
       1.535729354586e+00       3.118917362803e+01 
       1.933328386357e+00       2.341930958514e+01 
       2.433916094495e+00       1.737739657903e+01 
       3.064118821466e+00       1.266158198085e+01 
       3.857497049101e+00       9.014253843700e+00 
       4.856301061034e+00       6.248383230414e+00 
       6.113720813059e+00       4.208002975548e+00 
       7.696718492175e+00       2.752360509145e+00 
       9.689594497225e+00       1.751698276085e+00 
       1.219847674254e+01       1.088623596401e+00 
