# Matter power spectrum P(k) at redshift z=2
# for k=1.69188e-07 to 10.6889 h/Mpc,
# number of wavenumbers equal to 140
#    1:k (h/Mpc)              2:P (Mpc/h)^3        
       1.691880460773e-07       4.849274941688e-01 
       2.129951305785e-07       6.048905611338e-01 
       2.681449824737e-07       7.545305126491e-01 
       3.375745324813e-07       9.411889202768e-01 
       4.249811573152e-07       1.174023538763e+00 
       5.350195784778e-07       1.464457599223e+00 
       6.735497431531e-07       1.826740250015e+00 
       8.479488877629e-07       2.278645639920e+00 
       1.067504402707e-06       2.842344940808e+00 
       1.343908419770e-06       3.545494092663e+00 
       1.691880460773e-06       4.422590628045e+00 
       2.129951305785e-06       5.516666139176e+00 
       2.681449824737e-06       6.881397406604e+00 
       3.375745324813e-06       8.583739725467e+00 
       4.249811573152e-06       1.070721155947e+01 
       5.350195784778e-06       1.335599154316e+01 
       6.735497431531e-06       1.666002856633e+01 
       8.479488877629e-06       2.078141512573e+01 
       1.067504402707e-05       2.592233560944e+01 
       1.343908419770e-05       3.233497741098e+01 
       1.691880460773e-05       4.033388709942e+01 
       2.129951305785e-05       5.031136986483e+01 
       2.681449824737e-05       6.275667201559e+01 
       3.375745324813e-05       7.827985651522e+01 
       4.249811573152e-05       9.764148146755e+01 
       5.350195784778e-05       1.217894166033e+02 
       6.735497431531e-05       1.519043656679e+02 
       8.479488877629e-05       1.894558607706e+02 
       1.067504402707e-04       2.362705620558e+02 
       1.343908419770e-04       2.946144417226e+02 
       1.691880460773e-04       3.672894836679e+02 
       2.129951305785e-04       4.577432342149e+02 
       2.681449824737e-04       5.701848440295e+02 
       3.375745324813e-04       7.096928009328e+02 
       4.249811573152e-04       8.822865774246e+02 
       5.350195784778e-04       1.094919231019e+03 
       6.735497431531e-04       1.355340012177e+03 
       8.479488877629e-04       1.671787551610e+03 
       1.067504402707e-03       2.052478730647e+03 
       1.343908419770e-03       2.504729746564e+03 
       1.691880460773e-03       3.033308969024e+03 
       2.129951305785e-03       3.637994613929e+03 
       2.681449824737e-03       4.310870311092e+03 
       3.375745324813e-03       5.033272632810e+03 
       4.249811573152e-03       5.772582355140e+03 
       5.350195784778e-03       6.479035873080e+03 
       6.735497431531e-03       7.088710295662e+03 
       8.479488877629e-03       7.519134625508e+03 
       1.067504402707e-02       7.677179241809e+03 
       1.343908419770e-02       7.469924945846e+03 
       1.691880458991e-02       6.832621078306e+03 
       2.129949044015e-02       5.784016575538e+03 
       2.680974879744e-02       4.498803718551e+03 
       3.352996723111e-02       3.338631040867e+03 
       3.986027698097e-02       2.697164485336e+03 
       4.438965812026e-02       2.433112021023e+03 
       4.801067323596e-02       2.290376746200e+03 
       5.119113972165e-02       2.189109643152e+03 
       5.412975295483e-02       2.100341902564e+03 
       5.692746027177e-02       2.011112577815e+03 
       5.964304889408e-02       1.915470564221e+03 
       6.231430164117e-02       1.811431931612e+03 
       6.496739345589e-02       1.699635522232e+03 
       6.762157933817e-02       1.582525464904e+03 
       7.029174825938e-02       1.463686999907e+03 
       7.298991297001e-02       1.347228311300e+03 
       7.572612771153e-02       1.237208773646e+03 
       7.850907906852e-02       1.137153521130e+03 
       8.134648045280e-02       1.049695481055e+03 
       8.424534351135e-02       9.763621443520e+02 
       8.721216953829e-02       9.174939699931e+02 
       9.025308721717e-02       8.722579715335e+02 
       9.337395333685e-02       8.387197285887e+02 
       9.658042732610e-02       8.139644113972e+02 
       9.987802687525e-02       7.942991227623e+02 
       1.032721696496e-01       7.756002344124e+02 
       1.067682046376e-01       7.538572930943e+02 
       1.103714357186e-01       7.258867396828e+02 
       1.140871393990e-01       6.900624229419e+02 
       1.179205782432e-01       6.467996105220e+02 
       1.218770112425e-01       5.985349954575e+02 
       1.259617021827e-01       5.491124731419e+02 
       1.301799269459e-01       5.027489990273e+02 
       1.345369806066e-01       4.629434272955e+02 
       1.390381851347e-01       4.316731326367e+02 
       1.436888984843e-01       4.090308257212e+02 
       1.484945258319e-01       3.932749758461e+02 
       1.534605337111e-01       3.812457758530e+02 
       1.585924677862e-01       3.691759080790e+02 
       1.638959749994e-01       3.538690009454e+02 
       1.693768308279e-01       3.339058812708e+02 
       1.750409723971e-01       3.102271053155e+02 
       1.808945382166e-01       2.856078637420e+02 
       1.869439153517e-01       2.632452808058e+02 
       1.931957949149e-01       2.452756929532e+02 
       1.996572368796e-01       2.319582122351e+02 
       2.063357453838e-01       2.217580818059e+02 
       2.132393559373e-01       2.122157969466e+02 
       2.203767362741e-01       2.012869435030e+02 
       2.277573030462e-01       1.884821946398e+02 
       2.353913571552e-01       1.749856278359e+02 
       2.432902413151e-01       1.626081384416e+02 
       2.514665244964e-01       1.524324408981e+02 
       2.599342192981e-01       1.441732274570e+02 
       2.687090401496e-01       1.366029814773e+02 
       2.778087127314e-01       1.286435446493e+02 
       2.872533483693e-01       1.202203326876e+02 
       2.970659017517e-01       1.121036722568e+02 
       3.072727366961e-01       1.049685615102e+02 
       3.179043336452e-01       9.872488448407e+01 
       3.289961853520e-01       9.277220052293e+01 
       3.405899457589e-01       8.676967257793e+01 
       3.527349244840e-01       8.094479827852e+01 
       3.654900606254e-01       7.561298456039e+01 
       3.789265732069e-01       7.069538691554e+01 
       3.931315859025e-01       6.592888597016e+01 
       4.082131861076e-01       6.130322444912e+01 
       4.243076492649e-01       5.695196485882e+01 
       4.415900260501e-01       5.282343241823e+01 
       4.602901245587e-01       4.881813282705e+01 
       4.807174758398e-01       4.496631935985e+01 
       5.033019146282e-01       4.124603809118e+01 
       5.286626907238e-01       3.760417510184e+01 
       5.577328187007e-01       3.402414205794e+01 
       5.919977655156e-01       3.045180921207e+01 
       6.339891033333e-01       2.683178445319e+01 
       6.883896850287e-01       2.308099997832e+01 
       7.646479174765e-01       1.909357316079e+01 
       8.824951747724e-01       1.481247177237e+01 
       1.073162750529e+00       1.058005142287e+01 
       1.345773372162e+00       7.270393711062e+00 
       1.694078572639e+00       5.032303731242e+00 
       2.132717684100e+00       3.514784738680e+00 
       2.684932487891e+00       2.462270624660e+00 
       3.380129737958e+00       1.718214322318e+00 
       4.255331222276e+00       1.186391529112e+00 
       5.357144611325e+00       8.060494298504e-01 
       6.744245485853e+00       5.367670093362e-01 
       8.490502025518e+00       3.496964501873e-01 
       1.068890875881e+01       2.229386729753e-01 
