# Matter power spectrum P(k) at redshift z=0
# for k=2.35242e-07 to 11.8029 h/Mpc,
# number of wavenumbers equal to 139
#    1:k (h/Mpc)              2:P (Mpc/h)^3        
       2.352423886081e-07       9.721378826727e-01 
       2.961526209500e-07       1.209366312674e+00 
       3.728340602833e-07       1.504485015840e+00 
       4.693702728731e-07       1.871620813436e+00 
       5.909021640607e-07       2.328347859861e+00 
       7.439017502202e-07       2.896528886350e+00 
       9.365168172304e-07       3.603361730908e+00 
       1.179004819784e-06       4.482681249345e+00 
       1.484279128254e-06       5.576578926331e+00 
       1.868596712754e-06       6.937417712970e+00 
       2.352423886081e-06       8.630338531502e+00 
       2.961526209500e-06       1.073637842157e+01 
       3.728340602833e-06       1.335634957133e+01 
       4.693702728731e-06       1.661566487840e+01 
       5.909021640607e-06       2.067034096580e+01 
       7.439017502202e-06       2.571446587104e+01 
       9.365168172304e-06       3.198948860613e+01 
       1.179004819784e-05       3.979577473848e+01 
       1.484279128254e-05       4.950698009938e+01 
       1.868596712754e-05       6.158792862837e+01 
       2.352423886081e-05       7.661684609469e+01 
       2.961526209500e-05       9.531300606700e+01 
       3.728340602833e-05       1.185710958584e+02 
       4.693702728731e-05       1.475039167486e+02 
       5.909021640607e-05       1.834954020163e+02 
       7.439017502202e-05       2.282663721160e+02 
       9.365168172304e-05       2.839559424806e+02 
       1.179004819784e-04       3.532220289173e+02 
       1.484279128254e-04       4.393648873310e+02 
       1.868596712754e-04       5.464779293949e+02 
       2.352423886081e-04       6.796298911720e+02 
       2.961526209500e-04       8.450813310251e+02 
       3.728340602833e-04       1.050535762910e+03 
       4.693702728731e-04       1.305420943149e+03 
       5.909021640607e-04       1.621189021257e+03 
       7.439017502202e-04       2.011615923609e+03 
       9.365168172304e-04       2.493065483359e+03 
       1.179004819784e-03       3.084638352980e+03 
       1.484279128254e-03       3.808029244487e+03 
       1.868596712754e-03       4.686862350122e+03 
       2.352423886081e-03       5.745272693025e+03 
       2.961526209500e-03       7.005282889675e+03 
       3.728340602833e-03       8.482598388643e+03 
       4.693702728731e-03       1.018050167224e+04 
       5.909021640607e-03       1.208109921077e+04 
       7.439017502202e-03       1.413389688144e+04 
       9.365168172304e-03       1.624219790681e+04 
       1.179004819784e-02       1.824804638122e+04 
       1.484279128254e-02       1.992062530245e+04 
       1.868596712735e-02       2.096060279576e+04 
       2.352423810632e-02       2.104909695443e+04 
       2.961486080851e-02       1.998371942467e+04 
       3.724193004765e-02       1.791485713175e+04 
       4.588341326959e-02       1.566265623245e+04 
       5.266916111888e-02       1.428331398933e+04 
       5.770457795512e-02       1.347473854851e+04 
       6.193885548839e-02       1.289347615361e+04 
       6.575887381737e-02       1.241279492629e+04 
       6.934341176156e-02       1.197570321659e+04 
       7.278971280271e-02       1.155243444792e+04 
       7.615723808989e-02       1.112683273521e+04 
       7.948562813849e-02       1.069103721745e+04 
       8.280315145443e-02       1.024298618985e+04 
       8.613110535187e-02       9.784950231232e+03 
       8.948629463348e-02       9.322414668694e+03 
       9.288251615091e-02       8.863039558850e+03 
       9.633149298737e-02       8.415605664056e+03 
       9.984348651936e-02       7.988949142080e+03 
       1.034277110055e-01       7.590932593673e+03 
       1.070926222498e-01       7.227522645046e+03 
       1.108461231788e-01       6.902042188644e+03 
       1.146957129358e-01       6.614659284593e+03 
       1.186485965511e-01       6.362171022057e+03 
       1.227117664493e-01       6.138142883206e+03 
       1.268920634371e-01       5.933470714864e+03 
       1.311962224977e-01       5.737418360325e+03 
       1.356309072164e-01       5.539120374428e+03 
       1.402027356659e-01       5.329410070272e+03 
       1.449182999221e-01       5.102657254960e+03 
       1.497841809402e-01       4.858147870030e+03 
       1.548069602296e-01       4.600513197241e+03 
       1.599932295742e-01       4.338892676136e+03 
       1.653495999221e-01       4.084876225038e+03 
       1.708827104878e-01       3.849681191909e+03 
       1.765992390633e-01       3.641293504297e+03 
       1.825059145028e-01       3.462333415523e+03 
       1.886095323246e-01       3.309238041320e+03 
       1.949169743639e-01       3.173104852367e+03 
       2.014352333991e-01       3.042231473829e+03 
       2.081714436701e-01       2.905893287136e+03 
       2.151329182160e-01       2.758203449900e+03 
       2.223271939722e-01       2.600390672765e+03 
       2.297620856112e-01       2.440149112425e+03 
       2.374457491774e-01       2.288053357744e+03 
       2.453867566849e-01       2.152643790526e+03 
       2.535941830140e-01       2.036550023829e+03 
       2.620777066996e-01       1.935515305815e+03 
       2.708477265484e-01       1.840874552730e+03 
       2.799154965057e-01       1.744419935575e+03 
       2.892932818359e-01       1.643042321599e+03 
       2.989945405352e-01       1.540126635732e+03 
       3.090341350358e-01       1.442562755196e+03 
       3.194285807536e-01       1.355497829623e+03 
       3.301963400259e-01       1.278746522400e+03 
       3.413581726347e-01       1.207492494917e+03 
       3.529375576807e-01       1.136619514146e+03 
       3.649612064188e-01       1.064963347943e+03 
       3.774596923378e-01       9.955819639348e+02 
       3.904682340616e-01       9.319180870173e+02 
       4.040276798116e-01       8.740543701791e+02 
       4.181857610803e-01       8.190916654246e+02 
       4.329987108487e-01       7.648930725768e+02 
       4.485333829306e-01       7.123371523503e+02 
       4.648700718150e-01       6.632464993188e+02 
       4.821063300852e-01       6.173708162823e+02 
       5.003622364197e-01       5.730747025408e+02 
       5.197878229430e-01       5.301085098188e+02 
       5.405738034308e-01       4.893217572375e+02 
       5.629675018427e-01       4.503934012097e+02 
       5.872972613844e-01       4.125626137015e+02 
       6.140112437007e-01       3.760258306704e+02 
       6.437417946566e-01       3.405616742223e+02 
       6.774177259337e-01       3.057232495852e+02 
       7.164721390634e-01       2.713257828487e+02 
       7.632547187875e-01       2.368402656804e+02 
       8.219160952428e-01       2.017035101310e+02 
       9.004520730084e-01       1.651273163820e+02 
       1.015486961652e+00       1.264293966507e+02 
       1.199830272596e+00       8.675441594492e+01 
       1.487150013021e+00       5.292045339161e+01 
       1.870649571365e+00       3.086699600827e+01 
       2.354986251987e+00       1.778727394730e+01 
       2.964751979211e+00       1.015631398307e+01 
       3.732401606276e+00       5.751388290381e+00 
       4.698815229162e+00       3.232658875835e+00 
       5.915457897318e+00       1.804668874584e+00 
       7.447120269332e+00       1.001265351467e+00 
       9.375368951749e+00       5.523912575237e-01 
       1.180289021830e+01       3.031753532479e-01 
