# Matter power spectrum P(k) at redshift z=1
# for k=2.31763e-07 to 11.6291 h/Mpc,
# number of wavenumbers equal to 139
#    1:k (h/Mpc)              2:P (Mpc/h)^3        
       2.317632590396e-07       2.957365577303e-01 
       2.917726563252e-07       3.688969064991e-01 
       3.673200115145e-07       4.601559192549e-01 
       4.624284967562e-07       5.739909069571e-01 
       5.821629857041e-07       7.159867933428e-01 
       7.328997765089e-07       8.931101198772e-01 
       9.226661529453e-07       1.114050834917e+00 
       1.161567866545e-06       1.389648635604e+00 
       1.462327304717e-06       1.733424778951e+00 
       1.840961004269e-06       2.162245453788e+00 
       2.317632590396e-06       2.697149256341e+00 
       2.917726563252e-06       3.364379366614e+00 
       3.673200115145e-06       4.196671058701e+00 
       4.624284967562e-06       5.234857702788e+00 
       5.821629857041e-06       6.529874030382e+00 
       7.328997765089e-06       8.145254907419e+00 
       9.226661529453e-06       1.016025212827e+01 
       1.161567866545e-05       1.267372198452e+01 
       1.462327304717e-05       1.580897403463e+01 
       1.840961004269e-05       1.971981833455e+01 
       2.317632590396e-05       2.459810660271e+01 
       2.917726563252e-05       3.068313489059e+01 
       3.673200115145e-05       3.827336429918e+01 
       4.624284967562e-05       4.774102538044e+01 
       5.821629857041e-05       5.955030418390e+01 
       7.328997765089e-05       7.427996558451e+01 
       9.226661529453e-05       9.265145191504e+01 
       1.161567866545e-04       1.155636942678e+02 
       1.462327304717e-04       1.441360686923e+02 
       1.840961004269e-04       1.797610702175e+02 
       2.317632590396e-04       2.241682641781e+02 
       2.917726563252e-04       2.795007228354e+02 
       3.673200115145e-04       3.484041670771e+02 
       4.624284967562e-04       4.341270143424e+02 
       5.821629857041e-04       5.406261923911e+02 
       7.328997765089e-04       6.726692184225e+02 
       9.226661529453e-04       8.359187867617e+02 
       1.161567866545e-03       1.036980613181e+03 
       1.462327304717e-03       1.283373874049e+03 
       1.840961004269e-03       1.583324419374e+03 
       2.317632590396e-03       1.945243718144e+03 
       2.917726563252e-03       2.376819306233e+03 
       3.673200115145e-03       2.883564722755e+03 
       4.624284967562e-03       3.466690967139e+03 
       5.821629857041e-03       4.109658399699e+03 
       7.328997765089e-03       4.811388000054e+03 
       9.226661529453e-03       5.531821593339e+03 
       1.161567866545e-02       6.217872346981e+03 
       1.462327304717e-02       6.793397594812e+03 
       1.840961004236e-02       7.161751883794e+03 
       2.317632477820e-02       7.222503973308e+03 
       2.917672819246e-02       6.914122327221e+03 
       3.668113934254e-02       6.284678141887e+03 
       4.505558313648e-02       5.590334015783e+03 
       5.150836152796e-02       5.152449583421e+03 
       5.633622412860e-02       4.878708788348e+03 
       6.041887943922e-02       4.671871422531e+03 
       6.411323828344e-02       4.495529864734e+03 
       6.758607987242e-02       4.333297676492e+03 
       7.092886891250e-02       4.176783507134e+03 
       7.419786541943e-02       4.021619057137e+03 
       7.743074544065e-02       3.865853311250e+03 
       8.065447381846e-02       3.709166478524e+03 
       8.388942682161e-02       3.552392304508e+03 
       8.715172372316e-02       3.397155775516e+03 
       9.045462784508e-02       3.245550122961e+03 
       9.380943053852e-02       3.099827273727e+03 
       9.722603162331e-02       2.962101932113e+03 
       1.007133332697e-01       2.834081354543e+03 
       1.042795146537e-01       2.716838037386e+03 
       1.079322277967e-01       2.610643624901e+03 
       1.116787397340e-01       2.514882700573e+03 
       1.155260371670e-01       2.428063708492e+03 
       1.194809042807e-01       2.347943051225e+03 
       1.235499809874e-01       2.271773019313e+03 
       1.277398066665e-01       2.196669192245e+03 
       1.320568530460e-01       2.120065151166e+03 
       1.365075489282e-01       2.040185166376e+03 
       1.410982988371e-01       1.956429147027e+03 
       1.458354972495e-01       1.869551419561e+03 
       1.507255397916e-01       1.781542286638e+03 
       1.557748326066e-01       1.695195182574e+03 
       1.609898009761e-01       1.613439506566e+03 
       1.663768982094e-01       1.538600916852e+03 
       1.719426157636e-01       1.471785719710e+03 
       1.776934955309e-01       1.412563647707e+03 
       1.836361452117e-01       1.359062655913e+03 
       1.897772576763e-01       1.308501178002e+03 
       1.961236352139e-01       1.258062029712e+03 
       2.026822195619e-01       1.205857330421e+03 
       2.094601286138e-01       1.151609730485e+03 
       2.164647007253e-01       1.096703919912e+03 
       2.237035475749e-01       1.043515241885e+03 
       2.311846166062e-01       9.942928474710e+02 
       2.389162641956e-01       9.501268477257e+02 
       2.469073408573e-01       9.104998734088e+02 
       2.551672900480e-01       8.736474618375e+02 
       2.637062624811e-01       8.375622719468e+02 
       2.725352483331e-01       8.011082088101e+02 
       2.816662303641e-01       7.645666620266e+02 
       2.911123618190e-01       7.292408396987e+02 
       3.008881741003e-01       6.964039440924e+02 
       3.110098206824e-01       6.663741699005e+02 
       3.214953657066e-01       6.383910237052e+02 
       3.323651283157e-01       6.113358424581e+02 
       3.436420973199e-01       5.846585059577e+02 
       3.553524355856e-01       5.586883881389e+02 
       3.675261001444e-01       5.340886647596e+02 
       3.801976132476e-01       5.110767003450e+02 
       3.934070326471e-01       4.892427123901e+02 
       4.072011881853e-01       4.680852435078e+02 
       4.216352793089e-01       4.475448917748e+02 
       4.367749692098e-01       4.278775396934e+02 
       4.526991739121e-01       4.091435214697e+02 
       4.695038422098e-01       3.910987440371e+02 
       4.873071783252e-01       3.735677017933e+02 
       5.062570154579e-01       3.565931745342e+02 
       5.265414828712e-01       3.401581524379e+02 
       5.484048719010e-01       3.241040489077e+02 
       5.721719991722e-01       3.083406635564e+02 
       5.982870255093e-01       2.927978798142e+02 
       6.273780349420e-01       2.773159992589e+02 
       6.603700605576e-01       2.617324279462e+02 
       6.986951007636e-01       2.458122370639e+02 
       7.447106396679e-01       2.292127656686e+02 
       8.026017127442e-01       2.114044860985e+02 
       8.804736169447e-01       1.915351785964e+02 
       9.952236987143e-01       1.683011862223e+02 
       1.179726960280e+00       1.405766157943e+02 
       1.464999505157e+00       1.109465856248e+02 
       1.843099563972e+00       8.472641291828e+01 
       2.320309134253e+00       6.282286175733e+01 
       2.921096095362e+00       4.494518280507e+01 
       3.677442104733e+00       3.093828332870e+01 
       4.629625316050e+00       2.053456725841e+01 
       5.828352957461e+00       1.321217549407e+01 
       7.337461647054e+00       8.290936254087e+00 
       9.237316925541e+00       5.102687654073e+00 
       1.162909301436e+01       3.094586294773e+00 
