# Matter power spectrum P(k) at redshift z=1
# for k=2.21653e-07 to 11.1217 h/Mpc,
# number of wavenumbers equal to 139
#    1:k (h/Mpc)              2:P (Mpc/h)^3        
       2.216527857297e-07       3.498955535460e-01 
       2.790443245501e-07       4.364539449713e-01 
       3.512959911931e-07       5.444254552105e-01 
       4.422554503744e-07       6.791073366893e-01 
       5.567666249808e-07       8.471072942964e-01 
       7.009276526272e-07       1.056667670326e+00 
       8.824156337216e-07       1.318069825388e+00 
       1.110895465057e-06       1.644138557679e+00 
       1.398534530807e-06       2.050871306015e+00 
       1.760650660104e-06       2.558223005722e+00 
       2.216527857297e-06       3.191085102021e+00 
       2.790443245501e-06       3.980506749022e+00 
       3.512959911931e-06       4.965218102006e+00 
       4.422554503744e-06       6.193530424349e+00 
       5.567666249808e-06       7.725706202773e+00 
       7.009276526272e-06       9.636915501946e+00 
       8.824156337216e-06       1.202092349411e+01 
       1.110895465057e-05       1.499468986678e+01 
       1.398534530807e-05       1.870410536666e+01 
       1.760650660104e-05       2.333114607683e+01 
       2.216527857297e-05       2.910279485302e+01 
       2.790443245501e-05       3.630216439037e+01 
       3.512959911931e-05       4.528236137860e+01 
       4.422554503744e-05       5.648375947958e+01 
       5.567666249808e-05       7.045550404997e+01 
       7.009276526272e-05       8.788225535633e+01 
       8.824156337216e-05       1.096173871855e+02 
       1.110895465057e-04       1.367240832356e+02 
       1.398534530807e-04       1.705259834193e+02 
       1.760650660104e-04       2.126691594930e+02 
       2.216527857297e-04       2.651971096656e+02 
       2.790443245501e-04       3.306399124361e+02 
       3.512959911931e-04       4.121172811565e+02 
       4.422554503744e-04       5.134525142708e+02 
       5.567666249808e-04       6.392899141532e+02 
       7.009276526272e-04       7.952026723233e+02 
       8.824156337216e-04       9.877731218706e+02 
       1.110895465057e-03       1.224620806645e+03 
       1.398534530807e-03       1.514326325519e+03 
       1.760650660104e-03       1.866123781058e+03 
       2.216527857297e-03       2.289198197333e+03 
       2.790443245501e-03       2.791519802052e+03 
       3.512959911931e-03       3.378048555859e+03 
       4.422554503744e-03       4.048191099644e+03 
       5.567666249808e-03       4.792412963597e+03 
       7.009276526272e-03       5.588151747749e+03 
       8.824156337216e-03       6.395423974961e+03 
       1.110895465057e-02       7.152774796954e+03 
       1.398534530807e-02       7.775433769706e+03 
       1.760650660076e-02       8.159776460071e+03 
       2.216527756772e-02       8.202402009372e+03 
       2.790394388065e-02       7.844395274679e+03 
       3.508268127586e-02       7.140470282293e+03 
       4.311476407314e-02       6.358206399605e+03 
       4.932247154141e-02       5.849314583211e+03 
       5.396053213953e-02       5.521249084056e+03 
       5.787906774393e-02       5.267665035720e+03 
       6.142316005278e-02       5.048945868367e+03 
       6.475376274860e-02       4.847607833600e+03 
       6.795902606602e-02       4.654956303225e+03 
       7.109311819337e-02       4.466640051178e+03 
       7.419228724276e-02       4.280825950256e+03 
       7.728246055029e-02       4.097288775082e+03 
       8.038322062102e-02       3.916856003430e+03 
       8.351005221468e-02       3.740999163261e+03 
       8.667569188541e-02       3.571490561614e+03 
       8.989097908947e-02       3.410096795106e+03 
       9.316541483725e-02       3.258307230786e+03 
       9.650754067620e-02       3.117106252951e+03 
       9.992520289205e-02       2.986803546161e+03 
       1.034257408558e-01       2.866938734094e+03 
       1.070161237320e-01       2.756275964974e+03 
       1.107030510984e-01       2.652901939327e+03 
       1.144930277601e-01       2.554433701581e+03 
       1.183924197408e-01       2.458329235488e+03 
       1.224074963322e-01       2.362272093953e+03 
       1.265444617030e-01       2.264572009644e+03 
       1.308094786684e-01       2.164498568949e+03 
       1.352086866152e-01       2.062454621219e+03 
       1.397482151787e-01       1.959915230433e+03 
       1.444341949990e-01       1.859110045245e+03 
       1.492727667122e-01       1.762498701763e+03 
       1.542700892180e-01       1.672158785080e+03 
       1.594323481926e-01       1.589243902697e+03 
       1.647657657737e-01       1.513666948113e+03 
       1.702766123136e-01       1.444118219587e+03 
       1.759712210811e-01       1.378450078928e+03 
       1.818560067791e-01       1.314352000994e+03 
       1.879374887376e-01       1.250119564623e+03 
       1.942223196389e-01       1.185233597861e+03 
       2.007173206370e-01       1.120486164639e+03 
       2.074295237505e-01       1.057558823766e+03 
       2.143662224461e-01       9.982181329047e+02 
       2.215350313979e-01       9.434984872675e+02 
       2.289439565145e-01       8.932657126121e+02 
       2.366014764917e-01       8.463763496951e+02 
       2.445166373855e-01       8.013486631196e+02 
       2.526991620312e-01       7.571756397606e+02 
       2.611595765882e-01       7.137987864977e+02 
       2.699093570994e-01       6.719516124804e+02 
       2.789610997633e-01       6.325046715386e+02 
       2.883287196900e-01       5.958002897583e+02 
       2.980276843264e-01       5.614576349948e+02 
       3.080752896187e-01       5.287495009949e+02 
       3.184909894852e-01       4.971923987777e+02 
       3.292967925451e-01       4.668300998915e+02 
       3.405177446390e-01       4.379973676955e+02 
       3.521825219886e-01       4.108615129968e+02 
       3.643241686534e-01       3.852315728416e+02 
       3.769810244204e-01       3.607870100635e+02 
       3.901979072112e-01       3.373937061951e+02 
       4.040276403834e-01       3.151191942669e+02 
       4.185330545275e-01       2.939943263716e+02 
       4.337896531207e-01       2.738966950569e+02 
       4.498892245174e-01       2.546880965412e+02 
       4.669448315399e-01       2.363291920757e+02 
       4.850978543556e-01       2.187934710229e+02 
       5.045281765402e-01       2.019904940668e+02 
       5.254693311148e-01       1.858333557983e+02 
       5.482317502197e-01       1.702615471271e+02 
       5.732397949812e-01       1.551875055015e+02 
       6.010933294362e-01       1.405106739971e+02 
       6.326754274463e-01       1.261219366005e+02 
       6.693523756559e-01       1.118779878519e+02 
       7.133719399591e-01       9.759558278274e+01 
       7.687210863772e-01       8.302252936897e+01 
       8.431146424432e-01       6.782884190923e+01 
       9.526291735260e-01       5.173945201577e+01 
       1.128621746021e+00       3.530953387847e+01 
       1.401110481114e+00       2.147819733059e+01 
       1.762675825582e+00       1.253571216806e+01 
       2.219061499156e+00       7.231770206472e+00 
       2.793632873605e+00       4.134371191572e+00 
       3.516975415793e+00       2.344419922363e+00 
       4.427609723598e+00       1.319650740874e+00 
       5.574030394544e+00       7.378643985294e-01 
       7.017288509805e+00       4.100613309725e-01 
       8.834242826884e+00       2.266237945295e-01 
       1.112165278873e+01       1.246089004208e-01 
