# Matter power spectrum P(k) at redshift z=1.5
# for k=1.95597e-07 to 12.3545 h/Mpc,
# number of wavenumbers equal to 140
#    1:k (h/Mpc)              2:P (Mpc/h)^3        
       1.955965884240e-07       3.783906133622e-01 
       2.462415156273e-07       4.719982126968e-01 
       3.099997014619e-07       5.887627885904e-01 
       3.902665018190e-07       7.344129950631e-01 
       4.913164165119e-07       9.160946603120e-01 
       6.185307219785e-07       1.142721372022e+00 
       7.786840438741e-07       1.425411791469e+00 
       9.803051305917e-07       1.778035151185e+00 
       1.234131040214e-06       2.217891698558e+00 
       1.553678928010e-06       2.766561468797e+00 
       1.955965884240e-06       3.450963024731e+00 
       2.462415156273e-06       4.304674102930e+00 
       3.099997014619e-06       5.369578952042e+00 
       3.902665018190e-06       6.697923160461e+00 
       4.913164165119e-06       8.354876750123e+00 
       6.185307219785e-06       1.042173121143e+01 
       7.786840438741e-06       1.299988718185e+01 
       9.803051305917e-06       1.621582811286e+01 
       1.234131040214e-05       2.022732335754e+01 
       1.553678928010e-05       2.523116385979e+01 
       1.955965884240e-05       3.147280770162e+01 
       2.462415156273e-05       3.925840420495e+01 
       3.099997014619e-05       4.896977764990e+01 
       3.902665018190e-05       6.108308814403e+01 
       4.913164165119e-05       7.619205049565e+01 
       6.185307219785e-05       9.503678203902e+01 
       7.786840438741e-05       1.185395601112e+02 
       9.803051305917e-05       1.478489799250e+02 
       1.234131040214e-04       1.843941638464e+02 
       1.553678928010e-04       2.299506820165e+02 
       1.955965884240e-04       2.867195003259e+02 
       2.462415156273e-04       3.574192140333e+02 
       3.099997014619e-04       4.453894696761e+02 
       3.902665018190e-04       5.546990650870e+02 
       4.913164165119e-04       6.902452319987e+02 
       6.185307219785e-04       8.578220009573e+02 
       7.786840438741e-04       1.064129201045e+03 
       9.803051305918e-04       1.316692296366e+03 
       1.234131040214e-03       1.623645623232e+03 
       1.553678928010e-03       1.993236843538e+03 
       1.955965884240e-03       2.432802016831e+03 
       2.462415156273e-03       2.947155491216e+03 
       3.099997014619e-03       3.536430917482e+03 
       3.902665018190e-03       4.193273334628e+03 
       4.913164165119e-03       4.899299194608e+03 
       6.185307219785e-03       5.621268164834e+03 
       7.786840438741e-03       6.307414904528e+03 
       9.803051305918e-03       6.884479606510e+03 
       1.234131040214e-02       7.257432500576e+03 
       1.553678928008e-02       7.316799947222e+03 
       1.955965874702e-02       6.964456338845e+03 
       2.462406927126e-02       6.172303205697e+03 
       3.098735819647e-02       5.068971424855e+03 
       3.856696239352e-02       4.009987760033e+03 
       4.513657596126e-02       3.414118107744e+03 
       4.987245806906e-02       3.134100457389e+03 
       5.374888349648e-02       2.964347688901e+03 
       5.719638409398e-02       2.837392291695e+03 
       6.040444628091e-02       2.726165305571e+03 
       6.347234682493e-02       2.617545514809e+03 
       6.645918129152e-02       2.504866531989e+03 
       6.940355597733e-02       2.385230164963e+03 
       7.233256188374e-02       2.258304609163e+03 
       7.526633898340e-02       2.125621614392e+03 
       7.822059991587e-02       1.990027328401e+03 
       8.120811950976e-02       1.855167499257e+03 
       8.423966102584e-02       1.724981846570e+03 
       8.732457713162e-02       1.603225816409e+03 
       9.047121371433e-02       1.493054687416e+03 
       9.368718917759e-02       1.396701002431e+03 
       9.697959227083e-02       1.315260432609e+03 
       1.003551249447e-01       1.248583932963e+03 
       1.038202070859e-01       1.195266272862e+03 
       1.073810541761e-01       1.152727381596e+03 
       1.110437353162e-01       1.117406950323e+03 
       1.148142167688e-01       1.085110929709e+03 
       1.186983946857e-01       1.051542736193e+03 
       1.227021197138e-01       1.012998142348e+03 
       1.268312155242e-01       9.671100850195e+02 
       1.310914928778e-01       9.134358641637e+02 
       1.354887605538e-01       8.536520116806e+02 
       1.400288342806e-01       7.912081002286e+02 
       1.447175446817e-01       7.304793236631e+02 
       1.495607451770e-01       6.756561751061e+02 
       1.545643207240e-01       6.297034005623e+02 
       1.597341982594e-01       5.936600609909e+02 
       1.650763596765e-01       5.664096141602e+02 
       1.705968581662e-01       5.449521189810e+02 
       1.763018387358e-01       5.251907670473e+02 
       1.821975637192e-01       5.031761232349e+02 
       1.882904440926e-01       4.765032256256e+02 
       1.945870774221e-01       4.452563165050e+02 
       2.010942932983e-01       4.119089397076e+02 
       2.078192071691e-01       3.801059812612e+02 
       2.147692835678e-01       3.529388846732e+02 
       2.219524098746e-01       3.315935193056e+02 
       2.293769819488e-01       3.149569272329e+02 
       2.370520032546e-01       3.003038016577e+02 
       2.449871994918e-01       2.847943974088e+02 
       2.531931512750e-01       2.670730885723e+02 
       2.616814481015e-01       2.479477490345e+02 
       2.704648677851e-01       2.295919132796e+02 
       2.795575867610e-01       2.138607141700e+02 
       2.889754282996e-01       2.010134701450e+02 
       2.987361578362e-01       1.897322478866e+02 
       3.088598375388e-01       1.783421791822e+02 
       3.193692561810e-01       1.662266690385e+02 
       3.302904558005e-01       1.541660464460e+02 
       3.416533841426e-01       1.433057560011e+02 
       3.534927124831e-01       1.339090751977e+02 
       3.658488735963e-01       1.252276482303e+02 
       3.787693967259e-01       1.165175426082e+02 
       3.923106491834e-01       1.078887895686e+02 
       4.065401437840e-01       9.991374299374e+01 
       4.215396480450e-01       9.268100178219e+01 
       4.374094526559e-01       8.575632915607e+01 
       4.542743546927e-01       7.897163071083e+01 
       4.722922431883e-01       7.257271351117e+01 
       4.916667509908e-01       6.657641016061e+01 
       5.126664755402e-01       6.076719909292e+01 
       5.356552254581e-01       5.517677561690e+01 
       5.611416108522e-01       4.982309382952e+01 
       5.898643589583e-01       4.459485212494e+01 
       6.229476661503e-01       3.948926162625e+01 
       6.622035919649e-01       3.442559923075e+01 
       7.107673301007e-01       2.933758656080e+01 
       7.745403195510e-01       2.412191985215e+01 
       8.656049269959e-01       1.867867561782e+01 
       1.008822334875e+00       1.307728520303e+01 
       1.238076616782e+00       8.059352579516e+00 
       1.555396056084e+00       4.657970413969e+00 
       1.958059220871e+00       2.655909128421e+00 
       2.465050224421e+00       1.502413376655e+00 
       3.103314368699e+00       8.438786763140e-01 
       3.906841319541e+00       4.709380440898e-01 
       4.918421817018e+00       2.612682135642e-01 
       6.191926211367e+00       1.441667544844e-01 
       7.795173255444e+00       7.915726547778e-02 
       9.813541700616e+00       4.326443674584e-02 
       1.235451702661e+01       2.354675862530e-02 
