# Matter power spectrum P(k) at redshift z=2.5
# for k=2.06631e-07 to 10.3667 h/Mpc,
# number of wavenumbers equal to 139
#    1:k (h/Mpc)              2:P (Mpc/h)^3        
       2.066312146488e-07       1.485371042128e-01 
       2.601332869913e-07       1.852827349382e-01 
       3.274884054468e-07       2.311186287688e-01 
       4.122834756850e-07       2.882935669331e-01 
       5.190341444026e-07       3.596126417668e-01 
       6.534252739773e-07       4.485748793365e-01 
       8.226136821186e-07       5.595449064255e-01 
       1.035609268509e-06       6.979670859033e-01 
       1.303754824815e-06       8.706326248176e-01 
       1.641330079709e-06       1.086012760271e+00 
       2.066312146488e-06       1.354674368347e+00 
       2.601332869913e-06       1.689798385142e+00 
       3.274884054468e-06       2.107826472175e+00 
       4.122834756850e-06       2.629267644800e+00 
       5.190341444026e-06       3.279704427642e+00 
       6.534252739773e-06       4.091047876351e+00 
       8.226136821186e-06       5.103102992651e+00 
       1.035609268509e-05       6.365521237979e+00 
       1.303754824815e-05       7.940235759938e+00 
       1.641330079709e-05       9.904498445855e+00 
       2.066312146488e-05       1.235466707525e+01 
       2.601332869913e-05       1.541092697787e+01 
       3.274884054468e-05       1.922317602131e+01 
       4.122834756850e-05       2.397835612923e+01 
       5.190341444026e-05       2.990958012019e+01 
       6.534252739773e-05       3.730747996680e+01 
       8.226136821186e-05       4.653429093386e+01 
       1.035609268509e-04       5.804127882445e+01 
       1.303754824815e-04       7.239020173136e+01 
       1.641330079709e-04       9.027953987037e+01 
       2.066312146488e-04       1.125761628009e+02 
       2.601332869913e-04       1.403528085955e+02 
       3.274884054468e-04       1.749310087577e+02 
       4.122834756850e-04       2.179275776547e+02 
       5.190341444026e-04       2.713001198533e+02 
       6.534252739773e-04       3.373831061038e+02 
       8.226136821186e-04       4.189019255707e+02 
       1.035609268509e-03       5.189505452804e+02 
       1.303754824815e-03       6.409190301645e+02 
       1.641330079709e-03       7.883423344718e+02 
       2.066312146488e-03       9.645808379952e+02 
       2.601332869913e-03       1.172219836678e+03 
       3.274884054468e-03       1.412234161799e+03 
       4.122834756850e-03       1.682899325632e+03 
       5.190341444026e-03       1.978353720926e+03 
       6.534252739773e-03       2.285680242939e+03 
       8.226136821186e-03       2.587867417006e+03 
       1.035609268509e-02       2.856101813806e+03 
       1.303754824815e-02       3.053243148190e+03 
       1.641330079703e-02       3.135465106127e+03 
       2.066312115701e-02       3.061674057094e+03 
       2.601312907385e-02       2.814986048587e+03 
       3.272459284559e-02       2.435126441160e+03 
       4.051191158463e-02       2.052741076544e+03 
       4.686591568120e-02       1.826279791726e+03 
       5.151652352769e-02       1.701688104240e+03 
       5.538558904544e-02       1.615261273826e+03 
       5.885628434161e-02       1.544957407023e+03 
       6.210211875953e-02       1.481499660737e+03 
       6.521604412658e-02       1.420339381163e+03 
       6.825427901058e-02       1.359194328802e+03 
       7.125399278606e-02       1.297104575856e+03 
       7.424151702570e-02       1.233985168578e+03 
       7.723658126087e-02       1.170358969152e+03 
       8.025468072657e-02       1.107154551605e+03 
       8.330848597838e-02       1.045527871640e+03 
       8.640872560236e-02       9.866944516987e+02 
       8.956476224113e-02       9.317749953822e+02 
       9.278498148376e-02       8.816603815173e+02 
       9.607706189697e-02       8.369044015362e+02 
       9.944816690501e-02       7.976506591294e+02 
       1.029050837038e-01       7.635977763770e+02 
       1.064543253052e-01       7.340078675821e+02 
       1.101022063062e-01       7.077641445582e+02 
       1.138548995500e-01       6.834847646382e+02 
       1.177184786617e-01       6.596953946791e+02 
       1.216989500227e-01       6.350512111132e+02 
       1.258022768112e-01       6.085776321322e+02 
       1.300343971173e-01       5.798763449354e+02 
       1.344012377253e-01       5.492322510378e+02 
       1.389087248830e-01       5.175691585538e+02 
       1.435627931954e-01       4.862426264354e+02 
       1.483693936645e-01       4.567111215074e+02 
       1.533345018212e-01       4.301710273922e+02 
       1.584641268508e-01       4.072527315416e+02 
       1.637643225811e-01       3.878567200573e+02 
       1.692412011882e-01       3.711758208372e+02 
       1.749009504581e-01       3.559165605336e+02 
       1.807498554370e-01       3.406905866146e+02 
       1.867943252995e-01       3.244786430839e+02 
       1.930409262645e-01       3.069964719992e+02 
       1.994964214072e-01       2.887800262424e+02 
       2.061678182452e-01       2.709148606981e+02 
       2.130624250387e-01       2.545206816625e+02 
       2.201879168416e-01       2.402397029024e+02 
       2.275524124882e-01       2.279722022598e+02 
       2.351645639211e-01       2.169791118424e+02 
       2.430336595648e-01       2.063047823277e+02 
       2.511697438735e-01       1.953086410278e+02 
       2.595837557373e-01       1.839940212816e+02 
       2.682876891863e-01       1.729109114047e+02 
       2.772947808183e-01       1.627016281209e+02 
       2.866197296880e-01       1.536301022748e+02 
       2.962789571340e-01       1.454378853338e+02 
       3.062909163302e-01       1.376106811668e+02 
       3.166764644616e-01       1.298184000461e+02 
       3.274593146433e-01       1.221427981701e+02 
       3.386665904981e-01       1.148983590839e+02 
       3.503295143826e-01       1.082590218103e+02 
       3.624842716518e-01       1.020934780934e+02 
       3.751731097157e-01       9.615831420408e+01 
       3.884457545385e-01       9.038175773903e+01 
       4.023612627740e-01       8.488023110428e+01 
       4.169904816943e-01       7.972780431377e+01 
       4.324193728471e-01       7.484076238494e+01 
       4.487535886785e-01       7.012540510361e+01 
       4.661249093386e-01       6.560033106517e+01 
       4.847005143931e-01       6.129090912862e+01 
       5.046967053320e-01       5.714540788148e+01 
       5.263998575012e-01       5.312983076658e+01 
       5.501995830928e-01       4.924372758178e+01 
       5.766434740902e-01       4.545039933539e+01 
       6.065320400414e-01       4.171744182727e+01 
       6.410932217846e-01       3.800774623794e+01 
       6.823258412003e-01       3.426599137469e+01 
       7.337299187630e-01       3.041773928545e+01 
       8.019831427472e-01       2.635561062670e+01 
       9.008896435682e-01       2.194820970802e+01 
       1.058271836024e+00       1.718406864855e+01 
       1.306724262693e+00       1.265687293070e+01 
       1.643032139086e+00       9.230003020267e+00 
       2.068420943705e+00       6.800518883268e+00 
       2.603987579635e+00       5.036223734525e+00 
       3.278226135952e+00       3.720980957538e+00 
       4.127042188157e+00       2.722913892389e+00 
       5.195638286218e+00       1.960690239207e+00 
       6.540921069010e+00       1.381992630232e+00 
       8.234531750317e+00       9.500151795477e-01 
       1.036666127470e+01       6.356055132041e-01 
