# Matter power spectrum P(k) at redshift z=1
# for k=2.09748e-07 to 10.523 h/Mpc,
# number of wavenumbers equal to 139
#    1:k (h/Mpc)              2:P (Mpc/h)^3        
       2.097481087672e-07       4.239011943119e-01 
       2.640572242028e-07       5.287673610806e-01 
       3.324283497167e-07       6.595756884438e-01 
       4.185024970592e-07       8.227438389501e-01 
       5.268634284471e-07       1.026277098811e+00 
       6.632817586171e-07       1.280161129444e+00 
       8.350222611026e-07       1.596851879225e+00 
       1.051230743916e-06       1.991886690626e+00 
       1.323421097175e-06       2.484646584013e+00 
       1.666088449738e-06       3.099307116446e+00 
       2.097481087672e-06       3.866024462007e+00 
       2.640572242028e-06       4.822414901245e+00 
       3.324283497167e-06       6.015400296894e+00 
       4.185024970592e-06       7.503510075367e+00 
       5.268634284471e-06       9.359752618826e+00 
       6.632817586171e-06       1.167519686742e+01 
       8.350222611026e-06       1.456343970277e+01 
       1.051230743916e-05       1.816617799840e+01 
       1.323421097175e-05       2.266015814145e+01 
       1.666088449738e-05       2.826584283128e+01 
       2.097481087672e-05       3.525821813721e+01 
       2.640572242028e-05       4.398026656698e+01 
       3.324283497167e-05       5.485975841420e+01 
       4.185024970592e-05       6.843016788172e+01 
       5.268634284471e-05       8.535670604747e+01 
       6.632817586171e-05       1.064686805857e+02 
       8.350222611026e-05       1.327996377135e+02 
       1.051230743916e-04       1.656369963523e+02 
       1.323421097175e-04       2.065831038413e+02 
       1.666088449738e-04       2.576297291759e+02 
       2.097481087672e-04       3.212477755963e+02 
       2.640572242028e-04       4.004931018754e+02 
       3.324283497167e-04       4.991272613490e+02 
       4.185024970592e-04       6.217480488028e+02 
       5.268634284471e-04       7.739186470460e+02 
       6.632817586171e-04       9.622768593017e+02 
       8.350222611026e-04       1.194599998883e+03 
       1.051230743916e-03       1.479793940701e+03 
       1.323421097175e-03       1.827738497423e+03 
       1.666088449738e-03       2.248820164736e+03 
       2.097481087672e-03       2.752943098442e+03 
       2.640572242028e-03       3.347948387494e+03 
       3.324283497167e-03       4.037265222776e+03 
       4.185024970592e-03       4.816746697075e+03 
       5.268634284471e-03       5.662371734365e+03 
       6.632817586171e-03       6.553746873341e+03 
       8.350222611026e-03       7.430035097097e+03 
       1.051230743916e-02       8.208421269019e+03 
       1.323421097175e-02       8.776207652619e+03 
       1.666088449734e-02       8.997115195540e+03 
       2.097481066889e-02       8.739823200263e+03 
       2.640557278405e-02       7.947296432399e+03 
       3.322304171785e-02       6.744927882554e+03 
       4.121801369902e-02       5.547454336541e+03 
       4.788430527219e-02       4.858590369454e+03 
       5.273272046302e-02       4.508127023804e+03 
       5.674282175692e-02       4.281470060059e+03 
       6.032889455948e-02       4.105579441437e+03 
       6.367656437332e-02       3.949909584591e+03 
       6.688446996141e-02       3.799250432720e+03 
       7.001192346935e-02       3.645671459171e+03 
       7.309796793942e-02       3.485536202005e+03 
       7.617016602424e-02       3.318143251236e+03 
       7.924911019734e-02       3.144935214738e+03 
       8.235093385342e-02       2.968894003042e+03 
       8.548880153411e-02       2.793981443827e+03 
       8.867383972093e-02       2.624586490688e+03 
       9.191574295900e-02       2.464990376844e+03 
       9.522318235395e-02       2.318881532937e+03 
       9.860408880944e-02       2.188954799595e+03 
       1.020658540549e-01       2.076619826893e+03 
       1.056154760459e-01       1.981829723554e+03 
       1.092596656971e-01       1.903033600285e+03 
       1.130049260926e-01       1.837262294137e+03 
       1.168576117019e-01       1.780369683631e+03 
       1.208239728282e-01       1.727463704603e+03 
       1.249101890180e-01       1.673544924030e+03 
       1.291223941818e-01       1.614313694398e+03 
       1.334666955171e-01       1.547013374994e+03 
       1.379491878933e-01       1.471088368555e+03 
       1.425759650670e-01       1.388409743743e+03 
       1.473531289077e-01       1.302907845731e+03 
       1.522867976876e-01       1.219639207437e+03 
       1.573831144139e-01       1.143525067034e+03 
       1.626482561305e-01       1.078117369140e+03 
       1.680884450869e-01       1.024718635059e+03 
       1.737099626516e-01       9.820552307972e+02 
       1.795191668335e-01       9.465876110924e+02 
       1.855225142702e-01       9.134705043681e+02 
       1.917265875309e-01       8.780482264628e+02 
       1.981381285931e-01       8.374907651196e+02 
       2.047640793584e-01       7.918799237505e+02 
       2.116116301122e-01       7.440968054334e+02 
       2.186882768865e-01       6.984246888505e+02 
       2.260018887859e-01       6.585322743720e+02 
       2.335607864870e-01       6.258431117481e+02 
       2.413738333371e-01       5.990291230871e+02 
       2.494505407896e-01       5.748272615470e+02 
       2.578011903335e-01       5.498459746199e+02 
       2.664369746419e-01       5.224704590880e+02 
       2.753701614270e-01       4.936601152578e+02 
       2.846142844856e-01       4.660016895790e+02 
       2.941843677524e-01       4.417047397323e+02 
       3.040971899319e-01       4.210625029746e+02 
       3.143715996209e-01       4.024701096253e+02 
       3.250288939803e-01       3.839033500595e+02 
       3.360932782773e-01       3.646236590270e+02 
       3.475924294740e-01       3.455739670817e+02 
       3.595581951845e-01       3.281257710636e+02 
       3.720274708139e-01       3.125723612388e+02 
       3.850433141780e-01       2.979844396831e+02 
       3.986563809419e-01       2.834556244718e+02 
       4.129267999436e-01       2.691250047955e+02 
       4.279266616401e-01       2.556790693346e+02 
       4.437433769085e-01       2.431980174964e+02 
       4.604842968823e-01       2.311321671901e+02 
       4.782832023792e-01       2.192744285148e+02 
       4.973096381307e-01       2.079133914637e+02 
       5.177827054200e-01       1.970368275121e+02 
       5.399920817654e-01       1.863575159528e+02 
       5.643312190021e-01       1.758944982168e+02 
       5.913520050477e-01       1.656206889954e+02 
       6.218592775098e-01       1.553494280420e+02 
       6.570839455692e-01       1.450017265704e+02 
       6.990223046625e-01       1.343600479541e+02 
       7.511543212559e-01       1.231571433167e+02 
       8.200862468382e-01       1.109515101831e+02 
       9.194284309464e-01       9.708958135190e+01 
       1.076854087613e+00       8.095908845028e+01 
       1.326799260322e+00       6.370797763521e+01 
       1.667822132946e+00       4.865768441702e+01 
       2.099617851548e+00       3.654551098103e+01 
       2.643262106234e+00       2.686026388794e+01 
       3.327669835490e+00       1.922167802905e+01 
       4.189288117960e+00       1.334622668863e+01 
       5.274001269027e+00       8.978219935111e+00 
       6.639574219412e+00       5.859042014203e+00 
       8.358728708312e+00       3.721910041996e+00 
       1.052301598119e+01       2.311504735238e+00 
