# Matter power spectrum P(k) at redshift z=2
# for k=2.05334e-07 to 10.3016 h/Mpc,
# number of wavenumbers equal to 139
#    1:k (h/Mpc)              2:P (Mpc/h)^3        
       2.053336730555e-07       2.463460894401e-01 
       2.584997789065e-07       3.072880505800e-01 
       3.254319406086e-07       3.833060479718e-01 
       4.096945398417e-07       4.781296444522e-01 
       5.157748672800e-07       5.964110348134e-01 
       6.493220871836e-07       7.439532899091e-01 
       8.174480759946e-07       9.279950640452e-01 
       1.029106155692e-06       1.157565733841e+00 
       1.295567890834e-06       1.443928392602e+00 
       1.631023340476e-06       1.801132432725e+00 
       2.053336730555e-06       2.246702824843e+00 
       2.584997789065e-06       2.802499909205e+00 
       3.254319406086e-06       3.495791877679e+00 
       4.096945398417e-06       4.360592549366e+00 
       5.157748672800e-06       5.439330056109e+00 
       6.493220871836e-06       6.784928263655e+00 
       8.174480759946e-06       8.463402962812e+00 
       1.029106155692e-05       1.055710004205e+01 
       1.295567890834e-05       1.316873418746e+01 
       1.631023340476e-05       1.642642563010e+01 
       2.053336730555e-05       2.048998076890e+01 
       2.584997789065e-05       2.555872235694e+01 
       3.254319406086e-05       3.188124848987e+01 
       4.096945398417e-05       3.976758947708e+01 
       5.157748672800e-05       4.960433994793e+01 
       6.493220871836e-05       6.187347085223e+01 
       8.174480759946e-05       7.717566998442e+01 
       1.029106155692e-04       9.625921032807e+01 
       1.295567890834e-04       1.200554767000e+02 
       1.631023340476e-04       1.497223378149e+02 
       2.053336730555e-04       1.866964193352e+02 
       2.584997789065e-04       2.327548051992e+02 
       3.254319406086e-04       2.900854129934e+02 
       4.096945398417e-04       3.613627406634e+02 
       5.157748672800e-04       4.498213550622e+02 
       6.493220871836e-04       5.593135151183e+02 
       8.174480759946e-04       6.943316534013e+02 
       1.029106155692e-03       8.599745306512e+02 
       1.295567890834e-03       1.061832536061e+03 
       1.631023340476e-03       1.305726959394e+03 
       2.053336730555e-03       1.597141453682e+03 
       2.584997789065e-03       1.940225537715e+03 
       3.254319406086e-03       2.336442941186e+03 
       4.096945398417e-03       2.782748803193e+03 
       5.157748672800e-03       3.269266991758e+03 
       6.493220871836e-03       3.776687606809e+03 
       8.174480759946e-03       4.273707904594e+03 
       1.029106155692e-02       4.714968922422e+03 
       1.295567890834e-02       5.040771247997e+03 
       1.631023340469e-02       5.181457904657e+03 
       2.053336695366e-02       5.072464996045e+03 
       2.584975779587e-02       4.687616021736e+03 
       3.251723318669e-02       4.088472246778e+03 
       4.022292142338e-02       3.478763596352e+03 
       4.646482144783e-02       3.109816390256e+03 
       5.104410263223e-02       2.899182154855e+03 
       5.486138811183e-02       2.748777550333e+03 
       5.828924219139e-02       2.624389967097e+03 
       6.149699041815e-02       2.511622132209e+03 
       6.457559598222e-02       2.403480409517e+03 
       6.758018462046e-02       2.296516508446e+03 
       7.054725821311e-02       2.189324636273e+03 
       7.350270654732e-02       2.081818937574e+03 
       7.646594744517e-02       1.974799667687e+03 
       7.945224423697e-02       1.869631148133e+03 
       8.247408695792e-02       1.767964352817e+03 
       8.554205802715e-02       1.671485189249e+03 
       8.866539757097e-02       1.581688725542e+03 
       9.185238531651e-02       1.499687254790e+03 
       9.511060589636e-02       1.426062998642e+03 
       9.844713744649e-02       1.360774631714e+03 
       1.018686881881e-01       1.303125794274e+03 
       1.053816967835e-01       1.251804029129e+03 
       1.089924068644e-01       1.204999129780e+03 
       1.127069227706e-01       1.160607281914e+03 
       1.165312513959e-01       1.116515124884e+03 
       1.204713336434e-01       1.070936496554e+03 
       1.245330680766e-01       1.022744281942e+03 
       1.287223287426e-01       9.717151131562e+02 
       1.330449787362e-01       9.186024250218e+02 
       1.375068808076e-01       8.649847780469e+02 
       1.421139061347e-01       8.129001183957e+02 
       1.468719422694e-01       7.643462580545e+02 
       1.517869011936e-01       7.207766396439e+02 
       1.568647283738e-01       6.827250034165e+02 
       1.621114136766e-01       6.496615262108e+02 
       1.675330049873e-01       6.201342360465e+02 
       1.731356253639e-01       5.921906802649e+02 
       1.789254945478e-01       5.639948557168e+02 
       1.849089556521e-01       5.344519506478e+02 
       1.910925078502e-01       5.035860231064e+02 
       1.974828459016e-01       4.724674487899e+02 
       2.040869073869e-01       4.426851804872e+02 
       2.109119285818e-01       4.155995257810e+02 
       2.179655099988e-01       3.917331816357e+02 
       2.252556927726e-01       3.705881951527e+02 
       2.327910472825e-01       3.509729567777e+02 
       2.405807757085e-01       3.316769460465e+02 
       2.486348306321e-01       3.121264453519e+02 
       2.569640523535e-01       2.926191454838e+02 
       2.655803283414e-01       2.739835212322e+02 
       2.744967792173e-01       2.569182552477e+02 
       2.837279769798e-01       2.415024425455e+02 
       2.932902029019e-01       2.272205088243e+02 
       3.032017548373e-01       2.134395301770e+02 
       3.134833167645e-01       1.999151421804e+02 
       3.241584075996e-01       1.868846713995e+02 
       3.352539320809e-01       1.747041001704e+02 
       3.468008645643e-01       1.634394079548e+02 
       3.588351079281e-01       1.528364891177e+02 
       3.713985860923e-01       1.426440426472e+02 
       3.845406524712e-01       1.328619417833e+02 
       3.983199321282e-01       1.236243180010e+02 
       4.128067692293e-01       1.149392907377e+02 
       4.280865350069e-01       1.066759773160e+02 
       4.442641845520e-01       9.876174716361e+01 
       4.614706685392e-01       9.122579755128e+01 
       4.798721733921e-01       8.405547318001e+01 
       4.996838048531e-01       7.718010808625e+01 
       5.211904940996e-01       7.057147137149e+01 
       5.447801133181e-01       6.420798785795e+01 
       5.709981889400e-01       5.803675402034e+01 
       6.006428872089e-01       5.201567007773e+01 
       6.349398312099e-01       4.608697254385e+01 
       6.758866408378e-01       4.017835801732e+01 
       7.269867154079e-01       3.419357348977e+01 
       7.949358262913e-01       2.800656945284e+01 
       8.935909168573e-01       2.150041221378e+01 
       1.050786923096e+00       1.483081209764e+01 
       1.298416508722e+00       9.054330378754e+00 
       1.632722561891e+00       5.254688150641e+00 
       2.055445376766e+00       3.013154152976e+00 
       2.587652323019e+00       1.713260617536e+00 
       3.257661266297e+00       9.667590181584e-01 
       4.101152551159e+00       5.417693337966e-01 
       5.163045164298e+00       3.017050752041e-01 
       6.499888759576e+00       1.670559282674e-01 
       8.182875133266e+00       9.201588927054e-02 
       1.030162944681e+01       5.043954453277e-02 
