# Matter power spectrum P(k) at redshift z=1
# for k=2.07034e-07 to 10.3869 h/Mpc,
# number of wavenumbers equal to 139
#    1:k (h/Mpc)              2:P (Mpc/h)^3        
       2.070344120855e-07       5.856861421526e-01 
       2.606408824902e-07       7.272018048027e-01 
       3.281274303194e-07       9.029110075158e-01 
       4.130879603358e-07       1.121075720325e+00 
       5.200469305730e-07       1.391954200512e+00 
       6.547002962239e-07       1.728283342958e+00 
       8.242188400255e-07       2.145877576936e+00 
       1.037630042588e-06       2.664372469866e+00 
       1.306298828655e-06       3.308148002056e+00 
       1.644532790790e-06       4.107474923935e+00 
       2.070344120855e-06       5.099938094271e+00 
       2.606408824902e-06       6.332203720110e+00 
       3.281274303194e-06       7.862213582742e+00 
       4.130879603358e-06       9.761909398832e+00 
       5.200469305730e-06       1.212061536734e+01 
       6.547002962239e-06       1.504923786089e+01 
       8.242188400255e-06       1.868547953748e+01 
       1.037630042588e-05       2.320031267992e+01 
       1.306298828655e-05       2.880601540321e+01 
       1.644532790790e-05       3.576614716834e+01 
       2.070344120855e-05       4.440792981113e+01 
       2.606408824902e-05       5.513761068734e+01 
       3.281274303194e-05       6.845951936569e+01 
       4.130879603358e-05       8.499969238133e+01 
       5.200469305730e-05       1.055351346230e+02 
       6.547002962239e-05       1.310300103452e+02 
       8.242188400255e-05       1.626803031667e+02 
       1.037630042588e-04       2.019687283842e+02 
       1.306298828655e-04       2.507318648047e+02 
       1.644532790790e-04       3.112414785954e+02 
       2.070344120855e-04       3.863016114099e+02 
       2.606408824902e-04       4.793618012062e+02 
       3.281274303194e-04       5.946441868361e+02 
       4.130879603358e-04       7.372774966423e+02 
       5.200469305730e-04       9.134237543930e+02 
       6.547002962239e-04       1.130375302669e+03 
       8.242188400255e-04       1.396593692322e+03 
       1.037630042588e-03       1.721654869202e+03 
       1.306298828655e-03       2.116023183920e+03 
       1.644532790790e-03       2.590461229851e+03 
       2.070344120855e-03       3.154851159301e+03 
       2.606408824902e-03       3.816383886492e+03 
       3.281274303194e-03       4.576945520501e+03 
       4.130879603358e-03       5.429665026363e+03 
       5.200469305730e-03       6.354505218452e+03 
       6.547002962239e-03       7.313275546862e+03 
       8.242188400255e-03       8.244688707150e+03 
       1.037630042588e-02       9.060199490942e+03 
       1.306298828655e-02       9.643176485023e+03 
       1.644532790784e-02       9.857273056017e+03 
       2.070344091459e-02       9.576473695445e+03 
       2.606389526633e-02       8.752892817180e+03 
       3.278906440981e-02       7.518146790955e+03 
       4.060264351399e-02       6.289179811755e+03 
       4.699417849845e-02       5.566554864098e+03 
       5.166857270130e-02       5.172944676763e+03 
       5.555476236904e-02       4.902233869533e+03 
       5.903955066381e-02       4.683449062254e+03 
       6.229787097036e-02       4.486781023414e+03 
       6.542334825158e-02       4.297589432837e+03 
       6.847256930037e-02       4.108479305989e+03 
       7.148292753053e-02       3.916276215714e+03 
       7.448090229124e-02       3.720602740403e+03 
       7.748632705693e-02       3.523032925129e+03 
       8.051477417136e-02       3.326455596723e+03 
       8.357897405139e-02       3.134510918027e+03 
       8.668970362979e-02       2.951060262798e+03 
       8.985636597755e-02       2.779695083988e+03 
       9.308738154087e-02       2.623307191101e+03 
       9.639045975564e-02       2.483745368542e+03 
       9.977279202574e-02       2.361578416025e+03 
       1.032411914166e-01       2.255977488158e+03 
       1.068021952639e-01       2.164730985456e+03 
       1.104621413563e-01       2.084409520605e+03 
       1.142272249050e-01       2.010704228088e+03 
       1.181035413094e-01       1.938951363277e+03 
       1.220971183045e-01       1.864820642422e+03 
       1.262139401314e-01       1.785078736394e+03 
       1.304599657500e-01       1.698264460528e+03 
       1.348411426938e-01       1.605069208267e+03 
       1.393634178928e-01       1.508247815099e+03 
       1.440327466081e-01       1.412006189349e+03 
       1.488551005014e-01       1.320983552065e+03 
       1.538364757925e-01       1.239092769791e+03 
       1.589829024064e-01       1.168529576228e+03 
       1.643004549850e-01       1.109206051332e+03 
       1.697952666191e-01       1.058760157048e+03 
       1.754735461444e-01       1.013192241561e+03 
       1.813415998349e-01       9.680575980594e+02 
       1.874058583268e-01       9.199380894055e+02 
       1.936729096069e-01       8.676695825116e+02 
       2.001495389137e-01       8.127262058908e+02 
       2.068427764353e-01       7.584655202241e+02 
       2.137599537438e-01       7.085292603513e+02 
       2.209087700086e-01       6.651706811618e+02 
       2.282973691741e-01       6.283072661578e+02 
       2.359344295116e-01       5.957267432790e+02 
       2.438292672535e-01       5.643555672086e+02 
       2.519919564417e-01       5.319716174185e+02 
       2.604334676808e-01       4.983748467007e+02 
       2.691658292406e-01       4.652245590565e+02 
       2.782023149413e-01       4.346493103136e+02 
       2.875576645715e-01       4.076710056184e+02 
       2.972483443246e-01       3.835996087851e+02 
       3.072928570598e-01       3.607808224037e+02 
       3.177121153062e-01       3.380285991661e+02 
       3.285298941569e-01       3.154901633903e+02 
       3.397733870031e-01       2.941854444773e+02 
       3.514738951415e-01       2.747820525934e+02 
       3.636676937037e-01       2.569357769145e+02 
       3.763971327338e-01       2.398314161513e+02 
       3.897120561610e-01       2.231597728162e+02 
       4.036716569830e-01       2.072874524249e+02 
       4.183469409731e-01       1.925168608063e+02 
       4.338240550439e-01       1.786102622514e+02 
       4.502088697348e-01       1.652318818973e+02 
       4.676334233030e-01       1.524268311150e+02 
       4.862652023505e-01       1.403139420068e+02 
       5.063208748661e-01       1.287417931606e+02 
       5.280872535581e-01       1.175902594801e+02 
       5.519544682819e-01       1.068808174004e+02 
       5.784707079293e-01       9.651695369744e+01 
       6.084371224011e-01       8.641138382586e+01 
       6.430821969326e-01       7.648508691885e+01 
       6.844047592517e-01       6.660944066911e+01 
       7.359029650473e-01       5.662991418759e+01 
       8.042469652697e-01       4.634126039379e+01 
       9.032199408862e-01       3.555378619456e+01 
       1.060633082896e+00       2.451255352400e+01 
       1.309311873899e+00       1.492861727716e+01 
       1.646236616706e+00       8.622716166685e+00 
       2.072453895061e+00       4.919846229539e+00 
       2.609064759224e+00       2.783581806739e+00 
       3.284617926353e+00       1.563027119476e+00 
       4.135088975521e+00       8.716539363560e-01 
       5.205768591313e+00       4.830643924028e-01 
       6.553674367524e+00       2.661864112806e-01 
       8.250587201900e+00       1.459133614062e-01 
       1.038687389070e+01       7.960047011582e-02 
