# Matter power spectrum P(k) at redshift z=0
# for k=2.40528e-07 to 12.0685 h/Mpc,
# number of wavenumbers equal to 139
#    1:k (h/Mpc)              2:P (Mpc/h)^3        
       2.405281954355e-07       7.856475777421e-01 
       3.028070574868e-07       9.800038360163e-01 
       3.812114995407e-07       1.222440628027e+00 
       4.799168440399e-07       1.524852284755e+00 
       6.041795105099e-07       1.902075598196e+00 
       7.606169390663e-07       2.372617737139e+00 
       9.575599932317e-07       2.959564237319e+00 
       1.205496608797e-06       3.691711612113e+00 
       1.517630314646e-06       4.604980151078e+00 
       1.910583368817e-06       5.744176218845e+00 
       2.405281954355e-06       7.165190510810e+00 
       3.028070574868e-06       8.937740109323e+00 
       3.812114995407e-06       1.114878885584e+01 
       4.799168440399e-06       1.390681381914e+01 
       6.041795105099e-06       1.734712712377e+01 
       7.606169390663e-06       2.163851412713e+01 
       9.575599932317e-06       2.699151340581e+01 
       1.205496608797e-05       3.366874435556e+01 
       1.517630314646e-05       4.199778823680e+01 
       1.910583368817e-05       5.238725296627e+01 
       2.405281954355e-05       6.534680649451e+01 
       3.028070574868e-05       8.151215510900e+01 
       3.812114995407e-05       1.016761792076e+02 
       4.799168440399e-05       1.268277286343e+02 
       6.041795105099e-05       1.581999306831e+02 
       7.606169390663e-05       1.973302819991e+02 
       9.575599932317e-05       2.461352785887e+02 
       1.205496608797e-04       3.070028664685e+02 
       1.517630314646e-04       3.829065135783e+02 
       1.910583368817e-04       4.775450887768e+02 
       2.405281954355e-04       5.955127500544e+02 
       3.028070574868e-04       7.425022932459e+02 
       3.812114995407e-04       9.255433421989e+02 
       4.799168440399e-04       1.153272861810e+03 
       6.041795105099e-04       1.436229737679e+03 
       7.606169390663e-04       1.787157854052e+03 
       9.575599932317e-04       2.221288824962e+03 
       1.205496608797e-03       2.756535613466e+03 
       1.517630314646e-03       3.413443619518e+03 
       1.910583368817e-03       4.214694218417e+03 
       2.405281954355e-03       5.183943585286e+03 
       3.028070574868e-03       6.343577384547e+03 
       3.812114995407e-03       7.711003983295e+03 
       4.799168440399e-03       9.293126919229e+03 
       6.041795105099e-03       1.101206405181e+04 
       7.606169390663e-03       1.292784987217e+04 
       9.575599932317e-03       1.491023036822e+04 
       1.205496608797e-02       1.681657838534e+04 
       1.517630314646e-02       1.843721584031e+04 
       1.910583368791e-02       1.949994662521e+04 
       2.405281858809e-02       1.971456164846e+04 
       3.028022506367e-02       1.889350630782e+04 
       3.807367068509e-02       1.716259733347e+04 
       4.683671375165e-02       1.525649182901e+04 
       5.364983661257e-02       1.410172245305e+04 
       5.872675694514e-02       1.343046904397e+04 
       6.300839837732e-02       1.295436308353e+04 
       6.687718131131e-02       1.256479413885e+04 
       7.051084016908e-02       1.221136852320e+04 
       7.400646073116e-02       1.186671856417e+04 
       7.742358929164e-02       1.151523711722e+04 
       8.080201547018e-02       1.114877208637e+04 
       8.417016690543e-02       1.076469091923e+04 
       8.754949392549e-02       1.036477613698e+04 
       9.095694437498e-02       9.954342941413e+03 
       9.440644837272e-02       9.541325627370e+03 
       9.790985389997e-02       9.135250239134e+03 
       1.014775404741e-01       8.746109328603e+03 
       1.051188352167e-01       8.383208467307e+03 
       1.088423027698e-01       8.054077074844e+03 
       1.126559518943e-01       7.763528902763e+03 
       1.165673853795e-01       7.512942955484e+03 
       1.205839103545e-01       7.299824545626e+03 
       1.247126202930e-01       7.117720172913e+03 
       1.289604563832e-01       6.956592925838e+03 
       1.333342536121e-01       6.803793131728e+03 
       1.378407754091e-01       6.645724118789e+03 
       1.424867396962e-01       6.470149302165e+03 
       1.472788385315e-01       6.268800794494e+03 
       1.522237530905e-01       6.039626593621e+03 
       1.573281654402e-01       5.787848313101e+03 
       1.625987683647e-01       5.525196123572e+03 
       1.680422743815e-01       5.267262628538e+03 
       1.736654250058e-01       5.029618515196e+03 
       1.794750012727e-01       4.823779586580e+03 
       1.854778364948e-01       4.654101262731e+03 
       1.916808322163e-01       4.516366148886e+03 
       1.980909783070e-01       4.398543031986e+03 
       2.047153781348e-01       4.283982791299e+03 
       2.115612797500e-01       4.156778208530e+03 
       2.186361140208e-01       4.007813731553e+03 
       2.259475406778e-01       3.838759587291e+03 
       2.335035032663e-01       3.661422204065e+03 
       2.413122940780e-01       3.492192650186e+03 
       2.493826302496e-01       3.344317457471e+03 
       2.577237423965e-01       3.221901842787e+03 
       2.663454774016e-01       3.118415164164e+03 
       2.752584173453e-01       3.020446537252e+03 
       2.844740170473e-01       2.915296729964e+03 
       2.940047633550e-01       2.798465137040e+03 
       3.038643601916e-01       2.675888139345e+03 
       3.140679445348e-01       2.558863091201e+03 
       3.246323400384e-01       2.455477746549e+03 
       3.355763570422e-01       2.365152109856e+03 
       3.469211504337e-01       2.280172976625e+03 
       3.586906504832e-01       2.192776446147e+03 
       3.709120867386e-01       2.101742546633e+03 
       3.836166319119e-01       2.012323280760e+03 
       3.968402022231e-01       1.929837863349e+03 
       4.106244641766e-01       1.854129491199e+03 
       4.250181171703e-01       1.780766896817e+03 
       4.400785497783e-01       1.706924506827e+03 
       4.558740099642e-01       1.634283638238e+03 
       4.724864940810e-01       1.565474260812e+03 
       4.900156601176e-01       1.499950205397e+03 
       5.085842313240e-01       1.435520020812e+03 
       5.283456201436e-01       1.372072530012e+03 
       5.494949491471e-01       1.310688781280e+03 
       5.722854291148e-01       1.250813160698e+03 
       5.970534833881e-01       1.191528292516e+03 
       6.242587328983e-01       1.132960587335e+03 
       6.545504242989e-01       1.074601898483e+03 
       6.888835050566e-01       1.015686045505e+03 
       7.287338968143e-01       9.554575678189e+02 
       7.765265519943e-01       8.925141096448e+02 
       8.365559067542e-01       8.247405798244e+02 
       9.171175389801e-01       7.484992809851e+02 
       1.035483698407e+00       6.576060688933e+02 
       1.225501940424e+00       5.444076478710e+02 
       1.520473281779e+00       4.152566740824e+02 
       1.912740765138e+00       2.972819858601e+02 
       2.407978837514e+00       2.030896448104e+02 
       3.031465702201e+00       1.337139168649e+02 
       3.816389207468e+00       8.563897541920e+01 
       4.804549354578e+00       5.376678837655e+01 
       6.048569274698e+00       3.328521332359e+01 
       7.614697564915e+00       2.040464359504e+01 
       9.586336267598e+00       1.242354202535e+01 
       1.206848233328e+01       7.528347579075e+00 
