# Matter power spectrum P(k) at redshift z=2
# for k=2.08557e-07 to 10.4632 h/Mpc,
# number of wavenumbers equal to 139
#    1:k (h/Mpc)              2:P (Mpc/h)^3        
       2.085568442948e-07       2.086997542282e-01 
       2.625575110863e-07       2.603286326544e-01 
       3.305403227639e-07       3.247296442889e-01 
       4.161256119502e-07       4.050624042484e-01 
       5.238711073824e-07       5.052681642473e-01 
       6.595146495885e-07       6.302631762122e-01 
       8.302797518175e-07       7.861798914248e-01 
       1.045260278461e-06       9.806678274799e-01 
       1.315904726494e-06       1.223268864349e+00 
       1.656625899683e-06       1.525885382258e+00 
       2.085568442948e-06       1.903364206340e+00 
       2.625575110863e-06       2.374225005439e+00 
       3.305403227639e-06       2.961568879978e+00 
       4.161256119502e-06       3.694211701356e+00 
       5.238711073824e-06       4.608097794017e+00 
       6.595146495885e-06       5.748063282350e+00 
       8.302797518175e-06       7.170035546237e+00 
       1.045260278461e-05       8.943776562058e+00 
       1.315904726494e-05       1.115630446607e+01 
       1.656625899683e-05       1.391616066889e+01 
       2.085568442948e-05       1.735873088282e+01 
       2.625575110863e-05       2.165287905100e+01 
       3.305403227639e-05       2.700921569056e+01 
       4.161256119502e-05       3.369039837381e+01 
       5.238711073824e-05       4.202395413386e+01 
       6.595146495885e-05       5.241822208292e+01 
       8.302797518175e-05       6.538213788857e+01 
       1.045260278461e-04       8.154971167909e+01 
       1.315904726494e-04       1.017101673146e+02 
       1.656625899683e-04       1.268447680269e+02 
       2.085568442948e-04       1.581712601907e+02 
       2.625575110863e-04       1.971964521445e+02 
       3.305403227639e-04       2.457764181157e+02 
       4.161256119502e-04       3.061817539531e+02 
       5.238711073824e-04       3.811617838805e+02 
       6.595146495885e-04       4.739966993214e+02 
       8.302797518175e-04       5.885218516499e+02 
       1.045260278461e-03       7.291065956390e+02 
       1.315904726494e-03       9.005670101159e+02 
       1.656625899683e-03       1.107958082968e+03 
       2.085568442948e-03       1.356109081685e+03 
       2.625575110863e-03       1.648792823480e+03 
       3.305403227639e-03       1.987579962495e+03 
       4.161256119502e-03       2.370280510251e+03 
       5.238711073824e-03       2.787051817875e+03 
       6.595146495885e-03       3.224475503595e+03 
       8.302797518175e-03       3.654215620236e+03 
       1.045260278461e-02       4.036051466348e+03 
       1.315904726494e-02       4.315660924618e+03 
       1.656625899679e-02       4.427871124471e+03 
       2.085568418601e-02       4.310396887013e+03 
       2.625558302837e-02       3.936554573046e+03 
       3.303254722146e-02       3.365862841092e+03 
       4.094732982616e-02       2.795544312932e+03 
       4.748903617161e-02       2.464593907883e+03 
       5.225849228306e-02       2.291399762239e+03 
       5.621262506732e-02       2.176375706248e+03 
       5.975307757904e-02       2.085395990354e+03 
       6.306057309655e-02       2.004126085781e+03 
       6.623145938245e-02       1.925452838154e+03 
       6.932380656190e-02       1.845711887759e+03 
       7.237590749875e-02       1.763272755842e+03 
       7.541483309327e-02       1.677885130687e+03 
       7.846083182465e-02       1.590293808265e+03 
       8.152978317026e-02       1.501943947563e+03 
       8.463465545556e-02       1.414711571039e+03 
       8.778641736419e-02       1.330640800095e+03 
       9.099463200725e-02       1.251693285753e+03 
       9.426785757611e-02       1.179523109016e+03 
       9.761392530152e-02       1.115292380604e+03 
       1.010401368282e-01       1.059538655241e+03 
       1.045534070263e-01       1.012099553778e+03 
       1.081603688549e-01       9.720986953949e+02 
       1.118674511992e-01       9.380000111475e+02 
       1.156809370694e-01       9.077422889399e+02 
       1.196070072856e-01       8.789682124774e+02 
       1.236517733163e-01       8.493492443698e+02 
       1.278213019681e-01       8.169776501521e+02 
       1.321216339869e-01       7.807526292069e+02 
       1.365587982028e-01       7.406529504685e+02 
       1.411388225677e-01       6.977866831446e+02 
       1.458677432493e-01       6.541600641032e+02 
       1.507516128217e-01       6.121978941792e+02 
       1.557965085193e-01       5.741393129744e+02 
       1.610085414701e-01       5.414754626195e+02 
       1.663938677949e-01       5.145745730885e+02 
       1.719587024408e-01       4.925830999966e+02 
       1.777093366043e-01       4.736410155847e+02 
       1.836521595892e-01       4.554067098448e+02 
       1.897936859434e-01       4.358044811781e+02 
       1.961405887197e-01       4.137671586577e+02 
       2.026997397205e-01       3.896386931009e+02 
       2.094782576204e-01       3.649805847292e+02 
       2.164835649183e-01       3.418218783542e+02 
       2.237234547700e-01       3.217140892061e+02 
       2.312061689019e-01       3.050525889854e+02 
       2.389404880235e-01       2.909694351996e+02 
       2.469358364639e-01       2.778430299027e+02 
       2.552024031774e-01       2.642021096173e+02 
       2.637512818304e-01       2.495442124282e+02 
       2.725946334346e-01       2.345308488337e+02 
       2.817458759922e-01       2.203962862553e+02 
       2.912199069386e-01       2.080093161185e+02 
       3.010333659167e-01       1.972910385753e+02 
       3.112049477492e-01       1.873928225779e+02 
       3.217557786063e-01       1.774593999567e+02 
       3.327098726137e-01       1.673258266084e+02 
       3.440946919800e-01       1.575168471472e+02 
       3.559418418397e-01       1.485873065314e+02 
       3.682879424679e-01       1.405313754903e+02 
       3.811757379644e-01       1.328802245736e+02 
       3.946555244921e-01       1.253062978502e+02 
       4.087870168199e-01       1.179538246777e+02 
       4.236418260226e-01       1.110985476802e+02 
       4.393068051236e-01       1.046970636235e+02 
       4.558886528890e-01       9.850668554245e+01 
       4.735203839648e-01       9.249138787426e+01 
       4.923706406368e-01       8.677053014115e+01 
       5.126574611775e-01       8.129728924120e+01 
       5.346692781555e-01       7.596274034585e+01 
       5.587981114823e-01       7.078779699528e+01 
       5.855942772992e-01       6.573925536885e+01 
       6.158610960363e-01       6.074813346528e+01 
       6.508286147849e-01       5.577892415761e+01 
       6.924946569727e-01       5.074447206987e+01 
       7.443480794984e-01       4.554175246815e+01 
       8.130252875281e-01       4.001133879137e+01 
       9.122176599624e-01       3.394508545775e+01 
       1.069670363031e+00       2.725362657891e+01 
       1.319107416856e+00       2.065243902306e+01 
       1.658342146783e+00       1.541171960249e+01 
       2.087688383842e+00       1.152149344516e+01 
       2.628243820009e+00       8.577231085579e+00 
       3.308762933335e+00       6.312596377139e+00 
       4.165485738378e+00       4.564182419877e+00 
       5.244035848510e+00       3.226081010046e+00 
       6.601849990049e+00       2.221519858889e+00 
       8.311236717325e+00       1.487358739271e+00 
       1.046322710688e+01       9.677832708671e-01 
