# Matter power spectrum P(k) at redshift z=2.5
# for k=2.06712e-07 to 10.3707 h/Mpc,
# number of wavenumbers equal to 139
#    1:k (h/Mpc)              2:P (Mpc/h)^3        
       2.067119403920e-07       1.276683713003e-01 
       2.602349146807e-07       1.599017871270e-01 
       3.276163471276e-07       2.002734213538e-01 
       4.124445447182e-07       2.508379925345e-01 
       5.192369183016e-07       3.141689897518e-01 
       6.536805511915e-07       3.934896504550e-01 
       8.229350570906e-07       4.928370073684e-01 
       1.036013855628e-06       6.172673533055e-01 
       1.304264169821e-06       7.731135806930e-01 
       1.641971307080e-06       9.683074942470e-01 
       2.067119403920e-06       1.212783497205e+00 
       2.602349146807e-06       1.518984197729e+00 
       3.276163471276e-06       1.902493666468e+00 
       4.124445447182e-06       2.382830565375e+00 
       5.192369183016e-06       2.984441506737e+00 
       6.536805511915e-06       3.737945176570e+00 
       8.229350570906e-06       4.681690494562e+00 
       1.036013855628e-05       5.863708028881e+00 
       1.304264169821e-05       7.344153815827e+00 
       1.641971307080e-05       9.198369590015e+00 
       2.067119403920e-05       1.152071453372e+01 
       2.602349146807e-05       1.442936215037e+01 
       3.276163471276e-05       1.807230373422e+01 
       4.124445447182e-05       2.263485860482e+01 
       5.192369183016e-05       2.834906271234e+01 
       6.536805511915e-05       3.550539238001e+01 
       8.229350570906e-05       4.446737823084e+01 
       1.036013855628e-04       5.568977082434e+01 
       1.304264169821e-04       6.974102067523e+01 
       1.641971307080e-04       8.733089980109e+01 
       2.067119403920e-04       1.093440547950e+02 
       2.602349146807e-04       1.368800181553e+02 
       3.276163471276e-04       1.712994945637e+02 
       4.124445447182e-04       2.142752422300e+02 
       5.192369183016e-04       2.678431827803e+02 
       6.536805511915e-04       3.344453630126e+02 
       8.229350570906e-04       4.169519960106e+02 
       1.036013855628e-03       5.186476162538e+02 
       1.304264169821e-03       6.431665216904e+02 
       1.641971307080e-03       7.943472510250e+02 
       2.067119403920e-03       9.759132497809e+02 
       2.602349146807e-03       1.190860145414e+03 
       3.276163471276e-03       1.440588230489e+03 
       4.124445447182e-03       1.723753883339e+03 
       5.192369183016e-03       2.034733190138e+03 
       6.536805511915e-03       2.360293998826e+03 
       8.229350570906e-03       2.683300693009e+03 
       1.036013855628e-02       2.973515541903e+03 
       1.304264169821e-02       3.191618265341e+03 
       1.641971307074e-02       3.290586954722e+03 
       2.067119373412e-02       3.225501281104e+03 
       2.602329316861e-02       2.976421134434e+03 
       3.273750007937e-02       2.583463236727e+03 
       4.053005069739e-02       2.184172449134e+03 
       4.689148073013e-02       1.947124921510e+03 
       5.154679716484e-02       1.816872544866e+03 
       5.541925717062e-02       1.726593940571e+03 
       5.889274853918e-02       1.653105912565e+03 
       6.214106156514e-02       1.586632706854e+03 
       6.525728100619e-02       1.522373740668e+03 
       6.829769820320e-02       1.457920502888e+03 
       7.129952683666e-02       1.392266307443e+03 
       7.428912771998e-02       1.325336861515e+03 
       7.728625096228e-02       1.257709011166e+03 
       8.030640707107e-02       1.190396631613e+03 
       8.336227846349e-02       1.124660371379e+03 
       8.646460330945e-02       1.061827506560e+03 
       8.962275226881e-02       1.003125359099e+03 
       9.284511784548e-02       9.495349216781e+02 
       9.613938473179e-02       9.016739436279e+02 
       9.951272190578e-02       8.597165839826e+02 
       1.029719216995e-01       8.233542955499e+02 
       1.065235019551e-01       7.918034194762e+02 
       1.101737818758e-01       7.638659782886e+02 
       1.139289387480e-01       7.380515516895e+02 
       1.177950505227e-01       7.127632072092e+02 
       1.217781278238e-01       6.865378521794e+02 
       1.258841380146e-01       6.583080204556e+02 
       1.301190233322e-01       6.276275852570e+02 
       1.344887146842e-01       5.947912667082e+02 
       1.389991424282e-01       5.607907556725e+02 
       1.436562452743e-01       5.270935883212e+02 
       1.484659783300e-01       4.952880973380e+02 
       1.534343212383e-01       4.666864483491e+02 
       1.585672873059e-01       4.419914720180e+02 
       1.638709344978e-01       4.211139496845e+02 
       1.693513791469e-01       4.031917397254e+02 
       1.750148132233e-01       3.868259973029e+02 
       1.808675259930e-01       3.705042056631e+02 
       1.869159308973e-01       3.531054225993e+02 
       1.931665984828e-01       3.343030473822e+02 
       1.996262962320e-01       3.146654037932e+02 
       2.063020361709e-01       2.953687922529e+02 
       2.132011311965e-01       2.776393851091e+02 
       2.203312611600e-01       2.621926602368e+02 
       2.277005498919e-01       2.489373446680e+02 
       2.353176545741e-01       2.370786075436e+02 
       2.431918691661e-01       2.255737206398e+02 
       2.513332440121e-01       2.137130120290e+02 
       2.597527243170e-01       2.014864326496e+02 
       2.684623109298e-01       1.894874942569e+02 
       2.774752478622e-01       1.784222182415e+02 
       2.868062422839e-01       1.685909888381e+02 
       2.964717244708e-01       1.597215833956e+02 
       3.064901574986e-01       1.512528886976e+02 
       3.168824095836e-01       1.428166000506e+02 
       3.276722061969e-01       1.344945260595e+02 
       3.388866848730e-01       1.266306901674e+02 
       3.505570837127e-01       1.194222766120e+02 
       3.627196059804e-01       1.127312699811e+02 
       3.754165195664e-01       1.062900120991e+02 
       3.886975739816e-01       1.000151054216e+02 
       4.026218531049e-01       9.403304376088e+01 
       4.172602358716e-01       8.842872551627e+01 
       4.326987208784e-01       8.311274065434e+01 
       4.490430041891e-01       7.798047915980e+01 
       4.664249176160e-01       7.305099281537e+01 
       4.850117022432e-01       6.835391355398e+01 
       5.050197330941e-01       6.383325029558e+01 
       5.267354734348e-01       5.945053552667e+01 
       5.505486398194e-01       5.520571002651e+01 
       5.770069451457e-01       5.105872699117e+01 
       6.069110299147e-01       4.697333107115e+01 
       6.414889494498e-01       4.290859966531e+01 
       6.827395382540e-01       3.880267791646e+01 
       7.341624687462e-01       3.457209387487e+01 
       8.024339795522e-01       3.009535449716e+01 
       9.013541482415e-01       2.522063620157e+01 
       1.058743385697e+00       1.992058825071e+01 
       1.307242113779e+00       1.483547387883e+01 
       1.643673677846e+00       1.093379305336e+01 
       2.069228350300e+00       8.124184782091e+00 
       2.605004043276e+00       6.051638977172e+00 
       3.279505787859e+00       4.485166770947e+00 
       4.128653174462e+00       3.284110042723e+00 
       5.197666397814e+00       2.361239326142e+00 
       6.543474310237e+00       1.659129753148e+00 
       8.237746090580e+00       1.135596436257e+00 
       1.037070788934e+01       7.557698576772e-01 
