# Matter power spectrum P(k) at redshift z=0.5
# for k=1.73887e-07 to 10.9863 h/Mpc,
# number of wavenumbers equal to 140
#    1:k (h/Mpc)              2:P (Mpc/h)^3        
       1.738868854803e-07       1.943707263327e+00 
       2.189106189089e-07       2.408356959020e+00 
       2.755921410560e-07       2.984082710679e+00 
       3.469499496662e-07       3.697437617157e+00 
       4.367841082555e-07       4.581322382484e+00 
       5.498786133507e-07       5.676502729118e+00 
       6.922561597493e-07       7.033489553298e+00 
       8.714988709794e-07       8.714868533368e+00 
       1.097152075026e-06       1.079818663128e+01 
       1.381232627853e-06       1.337952860728e+01 
       1.738868854803e-06       1.657794848290e+01 
       2.189106189089e-06       2.054096030288e+01 
       2.755921410560e-06       2.545134137091e+01 
       3.469499496662e-06       3.153556159922e+01 
       4.367841082555e-06       3.907422749056e+01 
       5.498786133507e-06       4.841502194297e+01 
       6.922561597493e-06       5.998873568407e+01 
       8.714988709794e-06       7.432912779537e+01 
       1.097152075026e-05       9.209752755610e+01 
       1.381232627853e-05       1.141133047730e+02 
       1.738868854803e-05       1.413915993971e+02 
       2.189106189089e-05       1.751900218775e+02 
       2.755921410560e-05       2.170664219631e+02 
       3.469499496662e-05       2.689502802162e+02 
       4.367841082555e-05       3.332307993247e+02 
       5.498786133507e-05       4.128653366176e+02 
       6.922561597493e-05       5.115123575660e+02 
       8.714988709794e-05       6.336934478996e+02 
       1.097152075026e-04       7.849887838143e+02 
       1.381232627853e-04       9.722692174079e+02 
       1.738868854803e-04       1.203964708089e+03 
       2.189106189089e-04       1.490361494282e+03 
       2.755921410560e-04       1.843906928449e+03 
       3.469499496662e-04       2.279479805393e+03 
       4.367841082555e-04       2.814558078856e+03 
       5.498786133507e-04       3.469196303788e+03 
       6.922561597493e-04       4.265720245115e+03 
       8.714988709794e-04       5.227997984242e+03 
       1.097152075026e-03       6.379890908843e+03 
       1.381232627853e-03       7.742193481122e+03 
       1.738868854803e-03       9.327834861629e+03 
       2.189106189089e-03       1.113529146766e+04 
       2.755921410560e-03       1.314038858240e+04 
       3.469499496662e-03       1.528755352379e+04 
       4.367841082555e-03       1.747973128000e+04 
       5.498786133507e-03       1.955531045847e+04 
       6.922561597493e-03       2.134009206841e+04 
       8.714988709794e-03       2.256960441029e+04 
       1.097152075026e-02       2.294732672425e+04 
       1.381232627853e-02       2.216841778353e+04 
       1.738868853491e-02       2.001322084960e+04 
       2.189104379350e-02       1.654082638129e+04 
       2.755514649115e-02       1.234444535917e+04 
       3.448859347827e-02       8.635887828266e+03 
       4.113343948437e-02       6.666466973773e+03 
       4.589187861612e-02       5.941537385827e+03 
       4.967587320194e-02       5.607723604462e+03 
       5.299010919175e-02       5.404703632191e+03 
       5.604744895521e-02       5.238793452564e+03 
       5.895531028656e-02       5.066811676789e+03 
       6.177594892866e-02       4.867363904047e+03 
       6.454923503233e-02       4.631625835708e+03 
       6.730271299932e-02       4.359532631228e+03 
       7.005659931861e-02       4.057538980512e+03 
       7.282649655885e-02       3.736710674170e+03 
       7.562497254824e-02       3.410782443309e+03 
       7.846253115659e-02       3.094189161206e+03 
       8.134823627423e-02       2.800251345643e+03 
       8.429012784021e-02       2.539735081321e+03 
       8.729550774716e-02       2.319941664645e+03 
       9.037114128904e-02       2.144348656297e+03 
       9.352340201633e-02       2.012676867422e+03 
       9.675837759082e-02       1.921171431360e+03 
       1.000819480901e-01       1.862918667523e+03 
       1.034998444262e-01       1.828179161892e+03 
       1.070176921503e-01       1.804934208826e+03 
       1.106410443714e-01       1.779977525694e+03 
       1.143754065043e-01       1.740787041852e+03 
       1.182262548922e-01       1.678027639291e+03 
       1.221990509025e-01       1.587999000173e+03 
       1.262992517960e-01       1.473985912038e+03 
       1.305323194760e-01       1.345647237031e+03 
       1.349037280932e-01       1.216372650480e+03 
       1.394189714016e-01       1.099536388243e+03 
       1.440835707091e-01       1.005086568070e+03 
       1.489030842336e-01       9.375246263838e+02 
       1.538831186561e-01       8.954034460732e+02 
       1.590293436488e-01       8.718878336895e+02 
       1.643475101462e-01       8.561893433294e+02 
       1.698434731231e-01       8.362531594449e+02 
       1.755232196446e-01       8.027575933346e+02 
       1.813929029589e-01       7.530016365387e+02 
       1.874588834294e-01       6.921433551666e+02 
       1.937277771465e-01       6.304239741808e+02 
       2.002065131333e-01       5.779331905577e+02 
       2.069024001773e-01       5.401226572489e+02 
       2.138232044945e-01       5.160690632997e+02 
       2.209772396772e-01       4.994984714112e+02 
       2.283734707194e-01       4.820241501594e+02 
       2.360216343745e-01       4.577360668965e+02 
       2.439323787167e-01       4.266604855022e+02 
       2.521174255989e-01       3.941328348664e+02 
       2.605897607781e-01       3.663611140140e+02 
       2.693638579146e-01       3.459714697119e+02 
       2.784559445533e-01       3.307417986935e+02 
       2.878843207460e-01       3.159056651358e+02 
       2.976697444167e-01       2.982648344226e+02 
       3.078359022853e-01       2.787104341141e+02 
       3.184099916839e-01       2.606107162580e+02 
       3.294234477624e-01       2.459602922389e+02 
       3.409128636406e-01       2.335841047678e+02 
       3.529211700085e-01       2.210167368045e+02 
       3.654991686454e-01       2.075904571267e+02 
       3.787075564464e-01       1.947885696999e+02 
       3.926196413466e-01       1.836442501967e+02 
       4.073250536273e-01       1.733197310939e+02 
       4.229349212075e-01       1.628451164261e+02 
       4.395892524877e-01       1.526750534542e+02 
       4.574677434424e-01       1.433214136898e+02 
       4.768060703043e-01       1.342613970199e+02 
       4.979213013356e-01       1.253093173278e+02 
       5.212531294060e-01       1.167377489790e+02 
       5.474339465996e-01       1.082743155404e+02 
       5.774146159032e-01       9.987468836798e+01 
       6.127051904206e-01       9.142472570177e+01 
       6.558711431834e-01       8.275376813218e+01 
       7.116407928573e-01       7.361203934439e+01 
       7.895228594599e-01       6.365090663863e+01 
       9.094082899167e-01       5.252021369042e+01 
       1.103602742840e+00       4.071043377878e+01 
       1.383236092925e+00       3.046873671399e+01 
       1.741205378453e+00       2.271322600562e+01 
       2.192046526945e+00       1.683714196819e+01 
       2.759623075441e+00       1.233301598973e+01 
       3.474159616646e+00       8.877738121781e+00 
       4.373707826025e+00       6.253692123855e+00 
       5.506171925945e+00       4.298696916936e+00 
       6.931859759280e+00       2.879022112033e+00 
       8.726694401951e+00       1.878417390798e+00 
       1.098625734358e+01       1.195632191319e+00 
