# Matter power spectrum P(k) at redshift z=2.5
# for k=7.92673e-06 to 12.5806 h/Mpc,
# number of wavenumbers equal to 124
#    1:k (h/Mpc)              2:P (Mpc/h)^3        
       7.926725799520e-06       1.552774776712e+01 
       9.979156541340e-06       1.950191984204e+01 
       1.256301375816e-05       2.449320388040e+01 
       1.581589726887e-05       3.076187375650e+01 
       1.991103498211e-05       3.863477136115e+01 
       2.506650791410e-05       4.852229146482e+01 
       3.155686379800e-05       6.093967436383e+01 
       3.972773775183e-05       7.653365080589e+01 
       5.001425860888e-05       9.611571147759e+01 
       6.296422111476e-05       1.207035277287e+02 
       7.926725799520e-05       1.515722264274e+02 
       9.979156541340e-05       1.903173295285e+02 
       1.256301375816e-04       2.389309361236e+02 
       1.581589726887e-04       2.998918205412e+02 
       1.991103498211e-04       3.762678610245e+02 
       2.506650791410e-04       4.718244980731e+02 
       3.155686379800e-04       5.911242180822e+02 
       3.972773775183e-04       7.395882346391e+02 
       5.001425860888e-04       9.234744127471e+02 
       6.296422111476e-04       1.149715082421e+03 
       7.926725799520e-04       1.425572916218e+03 
       9.979156541340e-04       1.758102405311e+03 
       1.256301375816e-03       2.153312068692e+03 
       1.581589726887e-03       2.614634807064e+03 
       1.991103498211e-03       3.140535108400e+03 
       2.506650791410e-03       3.721993150360e+03 
       3.155686379800e-03       4.339983019667e+03 
       3.972773775183e-03       4.962644518062e+03 
       5.001425860888e-03       5.543731201738e+03 
       6.296422111476e-03       6.022313948214e+03 
       7.926725799520e-03       6.322938325236e+03 
       9.979156541340e-03       6.360948842574e+03 
       1.256301375816e-02       6.051315946245e+03 
       1.581589726669e-02       5.336838435991e+03 
       1.991103040614e-02       4.245899124510e+03 
       2.506505742174e-02       2.969011135127e+03 
       3.145877824949e-02       1.869211887473e+03 
       3.809223975352e-02       1.296026590260e+03 
       4.293456942426e-02       1.124989314348e+03 
       4.667988518678e-02       1.073926416589e+03 
       4.991099131499e-02       1.057571926574e+03 
       5.286669312081e-02       1.047882944279e+03 
       5.566339140172e-02       1.032229601501e+03 
       5.836689985306e-02       1.004338990387e+03 
       6.101860781388e-02       9.616788314355e+02 
       6.364670833200e-02       9.044710465054e+02 
       6.627165775319e-02       8.350835054302e+02 
       6.890909215159e-02       7.574129729998e+02 
       7.157150255815e-02       6.762307641574e+02 
       7.426925418137e-02       5.964567885193e+02 
       7.701123600790e-02       5.225340825472e+02 
       7.980529090606e-02       4.579331389208e+02 
       8.265850950523e-02       4.048862225002e+02 
       8.557743628379e-02       3.643717830748e+02 
       8.856821719502e-02       3.362404846363e+02 
       9.163670722475e-02       3.194585278754e+02 
       9.478854978073e-02       3.122345014789e+02 
       9.802923583452e-02       3.120463584177e+02 
       1.013641482337e-01       3.156873410565e+02 
       1.047985949935e-01       3.193626462679e+02 
       1.083378343240e-01       3.191763232402e+02 
       1.119870934563e-01       3.119097756689e+02 
       1.157515828634e-01       2.959652016463e+02 
       1.196365071683e-01       2.719288769232e+02 
       1.236470738242e-01       2.425250172750e+02 
       1.277885005197e-01       2.117971727289e+02 
       1.320660221761e-01       1.838798796245e+02 
       1.364848983492e-01       1.618534815861e+02 
       1.410504218143e-01       1.471989393659e+02 
       1.457679290927e-01       1.397129390410e+02 
       1.506428136636e-01       1.377568891140e+02 
       1.556805425951e-01       1.385748274314e+02 
       1.608866773251e-01       1.387660171512e+02 
       1.662668993180e-01       1.351098071337e+02 
       1.718270413333e-01       1.262965693740e+02 
       1.775731250573e-01       1.135884970119e+02 
       1.835114058896e-01       9.990258745865e+01 
       1.896484257383e-01       8.815424730623e+01 
       1.959910747819e-01       8.011399442710e+01 
       2.025466633088e-01       7.599627124017e+01 
       2.093230049636e-01       7.438121916492e+01 
       2.163285130354e-01       7.287496665168e+01 
       2.235723118374e-01       6.951347154197e+01 
       2.310643657823e-01       6.386602792941e+01 
       2.388156294925e-01       5.720344198991e+01 
       2.468382232643e-01       5.147742366662e+01 
       2.551456394871e-01       4.769515629581e+01 
       2.637529873361e-01       4.545550086649e+01 
       2.726772853423e-01       4.353819910375e+01 
       2.819378145277e-01       4.080270918092e+01 
       2.915565490070e-01       3.728537279479e+01 
       3.015586867613e-01       3.388714048365e+01 
       3.119733114314e-01       3.134050822386e+01 
       3.228342275417e-01       2.946047691753e+01 
       3.341810282769e-01       2.757404286424e+01 
       3.460604795207e-01       2.538740190786e+01 
       3.585283407222e-01       2.320842147139e+01 
       3.716517996181e-01       2.137893105638e+01 
       3.855127863309e-01       1.983496219005e+01 
       4.002125746910e-01       1.823715586841e+01 
       4.158783141571e-01       1.661156325159e+01 
       4.326725381267e-01       1.518970372814e+01 
       4.508074071644e-01       1.386109244836e+01 
       4.705667603823e-01       1.253087098149e+01 
       4.923415878571e-01       1.128794317694e+01 
       5.166897072096e-01       1.009674470824e+01 
       5.444415981170e-01       8.931136953291e+00 
       5.769001366723e-01       7.801347254443e+00 
       6.162458067468e-01       6.678794817220e+00 
       6.664266190155e-01       5.548807022578e+00 
       7.352475638209e-01       4.391059760204e+00 
       8.390783156413e-01       3.198143855129e+00 
       1.007392435476e+00       2.053423383957e+00 
       1.258388275391e+00       1.189914644155e+00 
       1.583805711167e+00       6.723909339241e-01 
       1.993889620407e+00       3.773289599762e-01 
       2.510158305992e+00       2.105358323265e-01 
       3.160102079039e+00       1.168538820503e-01 
       3.978332811165e+00       6.454488862796e-02 
       5.008424272551e+00       3.549281439780e-02 
       6.305232589761e+00       1.943676605046e-02 
       7.937817534522e+00       1.060297657997e-02 
       9.993120208396e+00       5.763274150571e-03 
       1.258059297346e+01       3.121899530890e-03 
