# Matter power spectrum P(k) at redshift z=0
# for k=2.04599e-07 to 10.2648 h/Mpc,
# number of wavenumbers equal to 139
#    1:k (h/Mpc)              2:P (Mpc/h)^3        
       2.045988336826e-07       1.017300550999e+00 
       2.575746709465e-07       1.268963935474e+00 
       3.242672986891e-07       1.582884691483e+00 
       4.082283425336e-07       1.974464265722e+00 
       5.139290342301e-07       2.462914167789e+00 
       6.469983210511e-07       3.072198516644e+00 
       8.145226277594e-07       3.832209755971e+00 
       1.025423234568e-06       4.780235220919e+00 
       1.290931367841e-06       5.962786506291e+00 
       1.625186303858e-06       7.437881384662e+00 
       2.045988336826e-06       9.277890220477e+00 
       2.575746709465e-06       1.157308651775e+01 
       3.242672986891e-06       1.443607576908e+01 
       4.082283425336e-06       1.800731983657e+01 
       5.139290342301e-06       2.246202779484e+01 
       6.469983210511e-06       2.801875109849e+01 
       8.145226277594e-06       3.495010434946e+01 
       1.025423234568e-05       4.359613681769e+01 
       1.290931367841e-05       5.438100910209e+01 
       1.625186303858e-05       6.783378990011e+01 
       2.045988336826e-05       8.461438682333e+01 
       2.575746709465e-05       1.055458708627e+02 
       3.242672986891e-05       1.316547555330e+02 
       4.082283425336e-05       1.642211577732e+02 
       5.139290342301e-05       2.048412048474e+02 
       6.469983210511e-05       2.555045588414e+02 
       8.145226277594e-05       3.186904891053e+02 
       1.025423234568e-04       3.974864778876e+02 
       1.290931367841e-04       4.957337671663e+02 
       1.625186303858e-04       6.182042855553e+02 
       2.045988336826e-04       7.708125576066e+02 
       2.575746709465e-04       9.608637252030e+02 
       3.242672986891e-04       1.197333702767e+03 
       4.082283425336e-04       1.491169011435e+03 
       5.139290342301e-04       1.855582642044e+03 
       6.469983210511e-04       2.306310267794e+03 
       8.145226277594e-04       2.861771719422e+03 
       1.025423234568e-03       3.543017184472e+03 
       1.290931367841e-03       4.373193300713e+03 
       1.625186303858e-03       5.376209783790e+03 
       2.045988336826e-03       6.574367311871e+03 
       2.575746709465e-03       7.984469929337e+03 
       3.242672986891e-03       9.612166562459e+03 
       4.082283425336e-03       1.144448470944e+04 
       5.139290342301e-03       1.344038478452e+04 
       6.469983210511e-03       1.552031353473e+04 
       8.145226277594e-03       1.755612638032e+04 
       1.025423234568e-02       1.936333417620e+04 
       1.290931367841e-02       2.070083219634e+04 
       1.625186303850e-02       2.128944620819e+04 
       2.045988299396e-02       2.087248271432e+04 
       2.575723689298e-02       1.934690733908e+04 
       3.239994673720e-02       1.695527296494e+04 
       4.006239574371e-02       1.450285693271e+04 
       4.624848338421e-02       1.299780661728e+04 
       5.079191481187e-02       1.212073575853e+04 
       5.458280545341e-02       1.148505696728e+04 
       5.798862439208e-02       1.095530598646e+04 
       6.117666854880e-02       1.047452773463e+04 
       6.423692803718e-02       1.001521005925e+04 
       6.722398972779e-02       9.563905203556e+03 
       7.017402417780e-02       9.115188488687e+03 
       7.311270058722e-02       8.668734679342e+03 
       7.605928029429e-02       8.227562948874e+03 
       7.902890961888e-02       7.796747824662e+03 
       8.203398707821e-02       7.382332534669e+03 
       8.508502065795e-02       6.990363042765e+03 
       8.819118783504e-02       6.626037459250e+03 
       9.136071399712e-02       6.292999956212e+03 
       9.460113539460e-02       5.992814912306e+03 
       9.791948610153e-02       5.724657393625e+03 
       1.013224334324e-01       5.485253114886e+03 
       1.048163774532e-01       5.269101428723e+03 
       1.084075248886e-01       5.069010682465e+03 
       1.121019443983e-01       4.876954021537e+03 
       1.159056080771e-01       4.685199236427e+03 
       1.198244226506e-01       4.487576775027e+03 
       1.238642529306e-01       4.280646523199e+03 
       1.280309394915e-01       4.064454707412e+03 
       1.323303121264e-01       3.842596233460e+03 
       1.367682003716e-01       3.621443707871e+03 
       1.413504422178e-01       3.408644893894e+03 
       1.460828920087e-01       3.211232755155e+03 
       1.509714284555e-01       3.033835686896e+03 
       1.560219636540e-01       2.877467949943e+03 
       1.612404539584e-01       2.739249577343e+03 
       1.666329135519e-01       2.613208861147e+03 
       1.722054315382e-01       2.492069954447e+03 
       1.779641933745e-01       2.369597053634e+03 
       1.839155074592e-01       2.242716371600e+03 
       1.900658376927e-01       2.112503004257e+03 
       1.964218428464e-01       1.983463513109e+03 
       2.029904236028e-01       1.861333288974e+03 
       2.097787781968e-01       1.750396725822e+03 
       2.167944676778e-01       1.651609935300e+03 
       2.240454919671e-01       1.562412619563e+03 
       2.315403780959e-01       1.478303985889e+03 
       2.392882823156e-01       1.395364882446e+03 
       2.472991081831e-01       1.312299842071e+03 
       2.555836432837e-01       1.230733300007e+03 
       2.641537179963e-01       1.153603791198e+03 
       2.730223906884e-01       1.082864825628e+03 
       2.822041650266e-01       1.018183050612e+03 
       2.917152468131e-01       9.574999121998e+02 
       3.015738500515e-01       8.988459967424e+02 
       3.118005650319e-01       8.417984568122e+02 
       3.224188054139e-01       7.873451812847e+02 
       3.334553570418e-01       7.364803269524e+02 
       3.449410592442e-01       6.890856116404e+02 
       3.569116606992e-01       6.441997443356e+02 
       3.694089082156e-01       6.011452705755e+02 
       3.824819505473e-01       5.600572502125e+02 
       3.961891747314e-01       5.212826470485e+02 
       4.106006461807e-01       4.846757369775e+02 
       4.258014072428e-01       4.497912900752e+02 
       4.418960218693e-01       4.164639361420e+02 
       4.590149716009e-01       3.847509304953e+02 
       4.773238751955e-01       3.545182491621e+02 
       4.970371454207e-01       3.255292586900e+02 
       5.184388606562e-01       2.976842067572e+02 
       5.419158375804e-01       2.708507385660e+02 
       5.680122963555e-01       2.448266572420e+02 
       5.975248094492e-01       2.194311386776e+02 
       6.316771523397e-01       1.944179418890e+02 
       6.724651418801e-01       1.694824651125e+02 
       7.233915933354e-01       1.442173433380e+02 
       7.911566231518e-01       1.180887014262e+02 
       8.896332564817e-01       9.060341546591e+01 
       1.046643071579e+00       6.243978679166e+01 
       1.293725638035e+00       3.809823264810e+01 
       1.626884786253e+00       2.211241639165e+01 
       2.048097560697e+00       1.268173734740e+01 
       2.578401976781e+00       7.211746794149e+00 
       3.246015770354e+00       4.069936226856e+00 
       4.086491740383e+00       2.281020959162e+00 
       5.144588297055e+00       1.270390770309e+00 
       6.476652940381e+00       7.034788925203e-01 
       8.153622970017e+00       3.875085618633e-01 
       1.026480315514e+01       2.124288440975e-01 
