# Matter power spectrum P(k) at redshift z=2
# for k=1.79905e-07 to 11.3657 h/Mpc,
# number of wavenumbers equal to 140
#    1:k (h/Mpc)              2:P (Mpc/h)^3        
       1.799052017833e-07       3.765504106846e-01 
       2.264872302389e-07       4.697027741377e-01 
       2.851305295947e-07       5.858994962821e-01 
       3.589580693850e-07       7.308413711629e-01 
       4.519014353174e-07       9.116394751174e-01 
       5.689102005473e-07       1.137164046632e+00 
       7.162155084980e-07       1.418479673730e+00 
       9.016619039692e-07       1.769388138478e+00 
       1.135125083754e-06       2.207105551235e+00 
       1.429037813502e-06       2.753106993727e+00 
       1.799052017833e-06       3.434180108612e+00 
       2.264872302389e-06       4.283739319130e+00 
       2.851305295947e-06       5.343465148500e+00 
       3.589580693850e-06       6.665349035403e+00 
       4.519014353174e-06       8.314243934266e+00 
       5.689102005473e-06       1.037104573861e+01 
       7.162155084980e-06       1.293666143892e+01 
       9.016619039692e-06       1.613695835685e+01 
       1.135125083754e-05       2.012893658327e+01 
       1.429037813502e-05       2.510842607354e+01 
       1.799052017833e-05       3.131968339193e+01 
       2.264872302389e-05       3.906735356508e+01 
       2.851305295947e-05       4.873137349201e+01 
       3.589580693850e-05       6.078552735156e+01 
       4.519014353174e-05       7.582052354739e+01 
       5.689102005473e-05       9.457264474393e+01 
       7.162155084980e-05       1.179592182681e+02 
       9.016619039692e-05       1.471223356901e+02 
       1.135125083754e-04       1.834823582954e+02 
       1.429037813502e-04       2.288026517811e+02 
       1.799052017833e-04       2.852664553346e+02 
       2.264872302389e-04       3.555653645492e+02 
       2.851305295947e-04       4.429958761769e+02 
       3.589580693850e-04       5.515548411600e+02 
       4.519014353174e-04       6.860157937790e+02 
       5.689102005473e-04       8.519571145062e+02 
       7.162155084980e-04       1.055705487827e+03 
       9.016619039692e-04       1.304162197891e+03 
       1.135125083754e-03       1.604479967111e+03 
       1.429037813502e-03       1.963471107540e+03 
       1.799052017833e-03       2.386448235383e+03 
       2.264872302389e-03       2.875396011894e+03 
       2.851305295947e-03       3.426793997833e+03 
       3.589580693850e-03       4.029001009349e+03 
       4.519014353174e-03       4.659130634952e+03 
       5.689102005473e-03       5.280183534339e+03 
       7.162155084980e-03       5.838746259886e+03 
       9.016619039692e-03       6.263767800170e+03 
       1.135125083754e-02       6.468035136586e+03 
       1.429037813502e-02       6.356816362535e+03 
       1.799052015525e-02       5.853753452790e+03 
       2.264869513801e-02       4.957015561566e+03 
       2.850742860213e-02       3.817418450354e+03 
       3.563552336017e-02       2.777885026436e+03 
       4.228051899521e-02       2.214989776975e+03 
       4.703477697791e-02       1.993059132414e+03 
       5.084741785250e-02       1.881589105505e+03 
       5.420173197667e-02       1.808711962870e+03 
       5.730386753833e-02       1.747627139596e+03 
       6.025897609666e-02       1.685761072034e+03 
       6.312846697182e-02       1.616819007253e+03 
       6.595189121839e-02       1.538145920227e+03 
       6.875669386549e-02       1.449609980966e+03 
       7.156309140728e-02       1.352949613523e+03 
       7.438673405172e-02       1.251233361571e+03 
       7.724026105754e-02       1.148323531041e+03 
       8.013425997045e-02       1.048334933613e+03 
       8.307788482097e-02       9.551290877897e+02 
       8.607926920291e-02       8.718970336696e+02 
       8.914581066623e-02       8.008718626316e+02 
       9.228437139772e-02       7.431811147825e+02 
       9.550142269757e-02       6.988161376809e+02 
       9.880315065566e-02       6.666735141181e+02 
       1.021955343768e-01       6.446336102977e+02 
       1.056844043661e-01       6.296785823245e+02 
       1.092754863184e-01       6.181030655039e+02 
       1.129744340276e-01       6.058955893484e+02 
       1.167868541283e-01       5.893320598617e+02 
       1.207183247160e-01       5.657158996002e+02 
       1.247744094523e-01       5.340630754851e+02 
       1.289606684621e-01       4.954517057251e+02 
       1.332826671404e-01       4.528175485001e+02 
       1.377459838560e-01       4.101870863723e+02 
       1.423562174603e-01       3.715953743820e+02 
       1.471189954569e-01       3.400701673139e+02 
       1.520399836583e-01       3.169792235959e+02 
       1.571248981333e-01       3.018169624820e+02 
       1.623795202375e-01       2.923601908847e+02 
       1.678097155097e-01       2.851716200871e+02 
       1.734214572116e-01       2.765219689390e+02 
       1.792208552898e-01       2.636538793076e+02 
       1.852141915488e-01       2.459060893200e+02 
       1.914079618461e-01       2.249900539882e+02 
       1.978089261710e-01       2.040996851321e+02 
       2.044241675454e-01       1.863281259080e+02 
       2.112611608067e-01       1.732967476894e+02 
       2.183278525165e-01       1.646032285819e+02 
       2.256327534947e-01       1.581711799576e+02 
       2.331850458317e-01       1.513499196255e+02 
       2.409947067139e-01       1.423872172162e+02 
       2.490726520364e-01       1.314299923817e+02 
       2.574309036278e-01       1.202235901467e+02 
       2.660827850348e-01       1.106955203098e+02 
       2.750431522997e-01       1.035825770811e+02 
       2.843286681448e-01       9.808094214754e+01 
       2.939581306203e-01       9.265100542861e+01 
       3.039528708620e-01       8.634882540006e+01 
       3.143372395015e-01       7.954736345811e+01 
       3.251392080665e-01       7.333537941535e+01 
       3.363911212611e-01       6.828788438324e+01 
       3.481306496467e-01       6.396020460760e+01 
       3.604020120409e-01       5.956392252030e+01 
       3.732575662134e-01       5.494482389001e+01 
       3.867599105853e-01       5.060709631925e+01 
       4.009847076310e-01       4.684467613143e+01 
       4.160245469846e-01       4.335050225690e+01 
       4.319943401064e-01       3.983408718301e+01 
       4.490390284918e-01       3.647137948986e+01 
       4.673448877467e-01       3.340701594458e+01 
       4.871566054557e-01       3.045659099153e+01 
       5.088039826684e-01       2.758391286448e+01 
       5.327453827634e-01       2.487404927167e+01 
       5.596418204496e-01       2.223467730486e+01 
       5.904904652707e-01       1.966833390642e+01 
       6.268813449860e-01       1.714136432832e+01 
       6.715292977561e-01       1.462100281264e+01 
       7.294671305734e-01       1.205895361793e+01 
       8.108690253115e-01       9.407684478833e+00 
       9.369560066394e-01       6.678383858830e+00 
       1.140775561970e+00       4.163196489937e+00 
       1.430965245967e+00       2.397116520678e+00 
       1.801336369058e+00       1.357685675526e+00 
       2.267747328564e+00       7.633342193090e-01 
       2.854924738761e+00       4.263781087975e-01 
       3.594137302386e+00       2.367489537079e-01 
       4.524750783451e+00       1.307415661029e-01 
       5.696323743322e+00       7.183982694155e-02 
       7.171246714274e+00       3.929281733469e-02 
       9.028064722845e+00       2.139962547280e-02 
       1.136566009891e+01       1.160838223137e-02 
