# Matter power spectrum P(k) at redshift z=1.5
# for k=1.79905e-07 to 11.3657 h/Mpc,
# number of wavenumbers equal to 140
#    1:k (h/Mpc)              2:P (Mpc/h)^3        
       1.799052017833e-07       5.256597441125e-01 
       2.264872302389e-07       6.556992983124e-01 
       2.851305295947e-07       8.179084939167e-01 
       3.589580693850e-07       1.020245569320e+00 
       4.519014353174e-07       1.272637499557e+00 
       5.689102005473e-07       1.587467028438e+00 
       7.162155084980e-07       1.980180184600e+00 
       9.016619039692e-07       2.470044085698e+00 
       1.135125083754e-06       3.081092209213e+00 
       1.429037813502e-06       3.843303503535e+00 
       1.799052017833e-06       4.794073185093e+00 
       2.264872302389e-06       5.980047371399e+00 
       2.851305295947e-06       7.459411546470e+00 
       3.589580693850e-06       9.304745093175e+00 
       4.519014353174e-06       1.160658188584e+01 
       5.689102005473e-06       1.447785149293e+01 
       7.162155084980e-06       1.805941862726e+01 
       9.016619039692e-06       2.252699211574e+01 
       1.135125083754e-05       2.809974134887e+01 
       1.429037813502e-05       3.505104094827e+01 
       1.799052017833e-05       4.372186692871e+01 
       2.264872302389e-05       5.453749379132e+01 
       2.851305295947e-05       6.802829650492e+01 
       3.589580693850e-05       8.485564772938e+01 
       4.519014353174e-05       1.058441213197e+02 
       5.689102005473e-05       1.320214646160e+02 
       7.162155084980e-05       1.646680699528e+02 
       9.016619039692e-05       2.053779196290e+02 
       1.135125083754e-04       2.561331109396e+02 
       1.429037813502e-04       3.193939057854e+02 
       1.799052017833e-04       3.982054467232e+02 
       2.264872302389e-04       4.963202238637e+02 
       2.851305295947e-04       6.183311059776e+02 
       3.589580693850e-04       7.698020911775e+02 
       4.519014353174e-04       9.573723631165e+02 
       5.689102005473e-04       1.188796150409e+03 
       7.162155084980e-04       1.472873989625e+03 
       9.016619039692e-04       1.819234833562e+03 
       1.135125083754e-03       2.237902574114e+03 
       1.429037813502e-03       2.738422515149e+03 
       1.799052017833e-03       3.328179793138e+03 
       2.264872302389e-03       4.009941763767e+03 
       2.851305295947e-03       4.778801940727e+03 
       3.589580693850e-03       5.618525733570e+03 
       4.519014353174e-03       6.497196028036e+03 
       5.689102005473e-03       7.363216686851e+03 
       7.162155084980e-03       8.142102003415e+03 
       9.016619039692e-03       8.734771579299e+03 
       1.135125083754e-02       9.019606857599e+03 
       1.429037813502e-02       8.864504697499e+03 
       1.799052015525e-02       8.162984264548e+03 
       2.264869513801e-02       6.912491853227e+03 
       2.850742860213e-02       5.323337451244e+03 
       3.563552336017e-02       3.873721842351e+03 
       4.228051899521e-02       3.088771926824e+03 
       4.703477697791e-02       2.779292664879e+03 
       5.084741785250e-02       2.623849217735e+03 
       5.420173197667e-02       2.522223064112e+03 
       5.730386753833e-02       2.437041111945e+03 
       6.025897609666e-02       2.350769753259e+03 
       6.312846697182e-02       2.254631019400e+03 
       6.595189121839e-02       2.144922493917e+03 
       6.875669386549e-02       2.021460374550e+03 
       7.156309140728e-02       1.886668836195e+03 
       7.438673405172e-02       1.744826962265e+03 
       7.724026105754e-02       1.601320662965e+03 
       8.013425997045e-02       1.461887983822e+03 
       8.307788482097e-02       1.331913754456e+03 
       8.607926920291e-02       1.215847845712e+03 
       8.914581066623e-02       1.116804251166e+03 
       9.228437139772e-02       1.036355336801e+03 
       9.550142269757e-02       9.744890182604e+02 
       9.880315065566e-02       9.296666000395e+02 
       1.021955343768e-01       8.989322803461e+02 
       1.056844043661e-01       8.780777168211e+02 
       1.092754863184e-01       8.619358351849e+02 
       1.129744340276e-01       8.449126875488e+02 
       1.167868541283e-01       8.218150822247e+02 
       1.207183247160e-01       7.888826865153e+02 
       1.247744094523e-01       7.447432755832e+02 
       1.289606684621e-01       6.909002684545e+02 
       1.332826671404e-01       6.314475437907e+02 
       1.377459838560e-01       5.719999732202e+02 
       1.423562174603e-01       5.181843836306e+02 
       1.471189954569e-01       4.742229311853e+02 
       1.520399836583e-01       4.420229456748e+02 
       1.571248981333e-01       4.208793943604e+02 
       1.623795202375e-01       4.076920673381e+02 
       1.678097155097e-01       3.976677094136e+02 
       1.734214572116e-01       3.856059011596e+02 
       1.792208552898e-01       3.676615352051e+02 
       1.852141915488e-01       3.429124963906e+02 
       1.914079618461e-01       3.137453806559e+02 
       1.978089261710e-01       2.846140610965e+02 
       2.044241675454e-01       2.598318771131e+02 
       2.112611608067e-01       2.416598092042e+02 
       2.183278525165e-01       2.295368220169e+02 
       2.256327534947e-01       2.205674257505e+02 
       2.331850458317e-01       2.110552780694e+02 
       2.409947067139e-01       1.985569187798e+02 
       2.490726520364e-01       1.832772238818e+02 
       2.574309036278e-01       1.676500572628e+02 
       2.660827850348e-01       1.543633011602e+02 
       2.750431522997e-01       1.444444051067e+02 
       2.843286681448e-01       1.367724540283e+02 
       2.939581306203e-01       1.292004868394e+02 
       3.039528708620e-01       1.204121877487e+02 
       3.143372395015e-01       1.109276470382e+02 
       3.251392080665e-01       1.022651237449e+02 
       3.363911212611e-01       9.522646519796e+01 
       3.481306496467e-01       8.919157849087e+01 
       3.604020120409e-01       8.306102665614e+01 
       3.732575662134e-01       7.661976013617e+01 
       3.867599105853e-01       7.057086170900e+01 
       4.009847076310e-01       6.532422094913e+01 
       4.160245469846e-01       6.045164626917e+01 
       4.319943401064e-01       5.554805557288e+01 
       4.490390284918e-01       5.085880841707e+01 
       4.673448877467e-01       4.658559779206e+01 
       4.871566054557e-01       4.247127279528e+01 
       5.088039826684e-01       3.846536462873e+01 
       5.327453827634e-01       3.468649899620e+01 
       5.596418204496e-01       3.100593291701e+01 
       5.904904652707e-01       2.742720413375e+01 
       6.268813449860e-01       2.390338158165e+01 
       6.715292977561e-01       2.038877389081e+01 
       7.294671305734e-01       1.681603335131e+01 
       8.108690253115e-01       1.311887691746e+01 
       9.369560066394e-01       9.312906760241e+00 
       1.140775561970e+00       5.805514509174e+00 
       1.430965245967e+00       3.342741752581e+00 
       1.801336369058e+00       1.893270710387e+00 
       2.267747328564e+00       1.064456440632e+00 
       2.854924738761e+00       5.945762499253e-01 
       3.594137302386e+00       3.301413550149e-01 
       4.524750783451e+00       1.823157885511e-01 
       5.696323743322e+00       1.001783492401e-01 
       7.171246714274e+00       5.479218088657e-02 
       9.028064722845e+00       2.984053126396e-02 
       1.136566009891e+01       1.618691566531e-02 
