# Matter power spectrum P(k) at redshift z=2
# for k=2.21861e-07 to 11.1308 h/Mpc,
# number of wavenumbers equal to 139
#    1:k (h/Mpc)              2:P (Mpc/h)^3        
       2.218606099079e-07       1.213970302725e-01 
       2.793059596892e-07       1.522362447292e-01 
       3.516253703182e-07       1.909097294267e-01 
       4.426701141252e-07       2.394076709000e-01 
       5.572886557140e-07       3.002258345915e-01 
       7.015848503830e-07       3.764940000395e-01 
       8.832429966769e-07       4.721370232307e-01 
       1.111937053306e-06       5.920768141771e-01 
       1.399845812722e-06       7.424856239765e-01 
       1.762301466230e-06       9.311036762020e-01 
       2.218606099079e-06       1.167637484857e+00 
       2.793059596892e-06       1.464259359974e+00 
       3.516253703182e-06       1.836233799849e+00 
       4.426701141252e-06       2.302703002678e+00 
       5.572886557140e-06       2.887671908494e+00 
       7.015848503830e-06       3.621243448116e+00 
       8.832429966769e-06       4.541167524307e+00 
       1.111937053306e-05       5.694783368545e+00 
       1.399845812722e-05       7.141455068445e+00 
       1.762301466230e-05       8.955625327749e+00 
       2.218606099079e-05       1.123064398885e+01 
       2.793059596892e-05       1.408356720555e+01 
       3.516253703182e-05       1.766117188063e+01 
       4.426701141252e-05       2.214749029870e+01 
       5.572886557140e-05       2.777324351870e+01 
       7.015848503830e-05       3.482764084655e+01 
       8.832429966769e-05       4.367311668313e+01 
       1.111937053306e-04       5.476369205368e+01 
       1.399845812722e-04       6.866776591852e+01 
       1.762301466230e-04       8.609623505217e+01 
       2.218606099079e-04       1.079368572810e+02 
       2.793059596892e-04       1.352956062478e+02 
       3.516253703182e-04       1.695452321790e+02 
       4.426701141252e-04       2.123800598475e+02 
       5.572886557140e-04       2.658738987019e+02 
       7.015848503830e-04       3.325347247672e+02 
       8.832429966769e-04       4.153462563064e+02 
       1.111937053306e-03       5.177842470668e+02 
       1.399845812722e-03       6.437920674020e+02 
       1.762301466230e-03       7.976782727146e+02 
       2.218606099079e-03       9.838430614733e+02 
       2.793059596892e-03       1.206239530471e+03 
       3.516253703182e-03       1.467569980235e+03 
       4.426701141252e-03       1.768125946292e+03 
       5.572886557140e-03       2.102211861862e+03 
       7.015848503830e-03       2.462857742233e+03 
       8.832429966769e-03       2.830166682635e+03 
       1.111937053306e-02       3.174305286350e+03 
       1.399845812722e-02       3.452333185911e+03 
       1.762301466221e-02       3.609415621163e+03 
       2.218606059035e-02       3.588512662825e+03 
       2.793034883307e-02       3.356457389956e+03 
       3.513370204744e-02       2.947891147896e+03 
       4.344615749419e-02       2.517105331305e+03 
       5.016165152765e-02       2.260836147395e+03 
       5.509276007052e-02       2.120653214730e+03 
       5.920633401689e-02       2.024811743568e+03 
       6.290168525841e-02       1.947784730533e+03 
       6.636054317419e-02       1.878450816174e+03 
       6.968063498608e-02       1.811118787075e+03 
       7.292122938564e-02       1.742756318002e+03 
       7.612159349460e-02       1.671934423350e+03 
       7.930959082108e-02       1.598339579633e+03 
       8.250612723021e-02       1.522486867782e+03 
       8.572764088483e-02       1.445499648304e+03 
       8.898758683296e-02       1.368903436974e+03 
       9.229736779363e-02       1.294418038831e+03 
       9.566694216147e-02       1.223751033415e+03 
       9.910523482446e-02       1.158402993988e+03 
       1.026204226150e-01       1.099498475674e+03 
       1.062201372598e-01       1.047654375911e+03 
       1.099116123729e-01       1.002894482106e+03 
       1.137017914712e-01       9.646170808790e+02 
       1.175974081963e-01       9.316237178120e+02 
       1.216050463136e-01       9.022208444282e+02 
       1.257311847572e-01       8.744055260801e+02 
       1.299822314906e-01       8.461378220881e+02 
       1.343645489658e-01       8.156778756534e+02 
       1.388844733101e-01       7.819307146720e+02 
       1.435483289300e-01       7.447102662210e+02 
       1.483624399344e-01       7.048263467273e+02 
       1.533331395870e-01       6.639334185890e+02 
       1.584667788759e-01       6.241499024177e+02 
       1.637697352068e-01       5.875378851927e+02 
       1.692484221824e-01       5.555822907569e+02 
       1.749093013940e-01       5.288074251398e+02 
       1.807588971365e-01       5.066287853595e+02 
       1.868038149428e-01       4.874923807842e+02 
       1.930507648249e-01       4.693088752698e+02 
       1.995065901058e-01       4.501152416133e+02 
       2.061783027301e-01       4.287728686287e+02 
       2.130731259577e-01       4.054048055001e+02 
       2.201985453789e-01       3.813148444256e+02 
       2.275623692567e-01       3.583700811676e+02 
       2.351727993057e-01       3.381298554165e+02 
       2.430385131785e-01       3.211453357106e+02 
       2.511687601631e-01       3.067572994270e+02 
       2.595734719261e-01       2.934897223596e+02 
       2.682633905806e-01       2.798744493630e+02 
       2.772502169680e-01       2.652792976802e+02 
       2.865467828434e-01       2.502082213172e+02 
       2.961672517225e-01       2.358344072888e+02 
       3.061273545566e-01       2.231008054002e+02 
       3.164446682691e-01       2.120628180040e+02 
       3.271389476748e-01       2.019478575425e+02 
       3.382325246508e-01       1.918587860124e+02 
       3.497507929670e-01       1.815256337761e+02 
       3.617228034261e-01       1.714220497786e+02 
       3.741820026545e-01       1.621558234756e+02 
       3.871671611680e-01       1.538047950730e+02 
       4.007235539737e-01       1.459113682177e+02 
       4.149044827323e-01       1.380843641750e+02 
       4.297732668512e-01       1.304284077191e+02 
       4.454058891313e-01       1.232573320568e+02 
       4.618945720749e-01       1.165709943966e+02 
       4.793527050438e-01       1.101036251800e+02 
       4.979217782478e-01       1.037842630309e+02 
       5.177813774088e-01       9.775229716820e+01 
       5.391639877755e-01       9.197891072862e+01 
       5.623776175874e-01       8.633116694046e+01 
       5.878416440764e-01       8.082953400317e+01 
       6.161460574937e-01       7.544831837237e+01 
       6.481543525226e-01       7.010308447751e+01 
       6.851929827447e-01       6.475736396527e+01 
       7.294249483175e-01       5.930892763320e+01 
       7.846459058709e-01       5.363722960024e+01 
       8.581148886708e-01       4.755047752548e+01 
       9.648606152979e-01       4.079190582319e+01 
       1.135032664323e+00       3.323002520495e+01 
       1.402885536771e+00       2.567284360733e+01 
       1.764141956342e+00       1.952759496061e+01 
       2.220891341852e+00       1.479655525650e+01 
       2.795936450166e+00       1.109391468170e+01 
       3.519875446836e+00       8.173410449536e+00 
       4.431260646372e+00       5.884268263882e+00 
       5.578626634001e+00       4.122324185360e+00 
       7.023074832456e+00       2.802751504489e+00 
       8.841527375510e+00       1.848017372179e+00 
       1.113082349210e+01       1.183748773361e+00 
