# Matter power spectrum P(k) at redshift z=1
# for k=7.80296e-06 to 12.3843 h/Mpc,
# number of wavenumbers equal to 124
#    1:k (h/Mpc)              2:P (Mpc/h)^3        
       7.802958211853e-06       5.671534066257e+01 
       9.823342380070e-06       7.074556581638e+01 
       1.236685535103e-05       8.824639086942e+01 
       1.556894846539e-05       1.100762761002e+02 
       1.960014485799e-05       1.373057056944e+02 
       2.467512043657e-05       1.712695263070e+02 
       3.106413615668e-05       2.136322414516e+02 
       3.910743040308e-05       2.664684215267e+02 
       4.923333792441e-05       3.323627960815e+02 
       6.198110022049e-05       4.145334754906e+02 
       7.802958211853e-05       5.169827664474e+02 
       9.823342380070e-05       6.446796743438e+02 
       1.236685535103e-04       8.037767318952e+02 
       1.556894846539e-04       1.001859641512e+03 
       1.960014485799e-04       1.248219790131e+03 
       2.467512043657e-04       1.554123451262e+03 
       3.106413615668e-04       1.933025688724e+03 
       3.910743040308e-04       2.400643302081e+03 
       4.923333792441e-04       2.974775306299e+03 
       6.198110022049e-04       3.674767089241e+03 
       7.802958211853e-04       4.520529656031e+03 
       9.823342380070e-04       5.530835167518e+03 
       1.236685535103e-03       6.720115752750e+03 
       1.556894846539e-03       8.093356107342e+03 
       1.960014485799e-03       9.639874815191e+03 
       2.467512043657e-03       1.132627072511e+04 
       3.106413615668e-03       1.308987800698e+04 
       3.910743040308e-03       1.483302124455e+04 
       4.923333792441e-03       1.642142252488e+04 
       6.198110022049e-03       1.769021366635e+04 
       7.802958211853e-03       1.844781845004e+04 
       9.823342380070e-03       1.849824803306e+04 
       1.236685535102e-02       1.766758804140e+04 
       1.556894845981e-02       1.586529160769e+04 
       1.960013560474e-02       1.319679800936e+04 
       2.467270109097e-02       1.009355767370e+04 
       3.092472695397e-02       7.335743916119e+03 
       3.714053076984e-02       5.751885077482e+03 
       4.161553341711e-02       5.100024472207e+03 
       4.513151611944e-02       4.745783494751e+03 
       4.819112887764e-02       4.488851420458e+03 
       5.100337760089e-02       4.262318302731e+03 
       5.367214881064e-02       4.038727888116e+03 
       5.625700593472e-02       3.807018892023e+03 
       5.879579282631e-02       3.564653759300e+03 
       6.131449261362e-02       3.314266438676e+03 
       6.383207986357e-02       3.061454762866e+03 
       6.636313658177e-02       2.813413418447e+03 
       6.891936579005e-02       2.577548263781e+03 
       7.151051776115e-02       2.360517760866e+03 
       7.414498315807e-02       2.167610972776e+03 
       7.683018729097e-02       2.002014060332e+03 
       7.957286037509e-02       1.864822119008e+03 
       8.237922755779e-02       1.754848794112e+03 
       8.525514533229e-02       1.668989491818e+03 
       8.820620109372e-02       1.602208146718e+03 
       9.123778671350e-02       1.548136473906e+03 
       9.435515339477e-02       1.499508052447e+03 
       9.756345279149e-02       1.449370640235e+03 
       1.008677679057e-01       1.391726127814e+03 
       1.042731363156e-01       1.322840015927e+03 
       1.077845676509e-01       1.242203533047e+03 
       1.114070568078e-01       1.152535851884e+03 
       1.151455941143e-01       1.059285026243e+03 
       1.190051734686e-01       9.691042571811e+02 
       1.229907993548e-01       8.881190012306e+02 
       1.271074935571e-01       8.205504954259e+02 
       1.313603023494e-01       7.676690177207e+02 
       1.357543049036e-01       7.277504336847e+02 
       1.402946236405e-01       6.965694884118e+02 
       1.449864372375e-01       6.685375134192e+02 
       1.498349969940e-01       6.383186472699e+02 
       1.548456472561e-01       6.025986840497e+02 
       1.600238505960e-01       5.611145663517e+02 
       1.653752184535e-01       5.172323912368e+02 
       1.709055479641e-01       4.752983484211e+02 
       1.766208657355e-01       4.390604366297e+02 
       1.825274794041e-01       4.099390232371e+02 
       1.886320379015e-01       3.863661049124e+02 
       1.949416015174e-01       3.653868026024e+02 
       2.014637230623e-01       3.445364060296e+02 
       2.082065417385e-01       3.223632904418e+02 
       2.151788917357e-01       2.990008010131e+02 
       2.223904281203e-01       2.763718518650e+02 
       2.298517733159e-01       2.564467863224e+02 
       2.375746884374e-01       2.394095556400e+02 
       2.455722750166e-01       2.243593545434e+02 
       2.538592143547e-01       2.098557304209e+02 
       2.624520540042e-01       1.951489723260e+02 
       2.713695539478e-01       1.808752948088e+02 
       2.806331092244e-01       1.676624071080e+02 
       2.902672715389e-01       1.558803615020e+02 
       3.003004005089e-01       1.450542903680e+02 
       3.107654867541e-01       1.345724483240e+02 
       3.217012057698e-01       1.244633004318e+02 
       3.331532861863e-01       1.150667892144e+02 
       3.451763130839e-01       1.063827047984e+02 
       3.578361439500e-01       9.816676605955e+01 
       3.712132043337e-01       9.035953287087e+01 
       3.854070745825e-01       8.300152354954e+01 
       4.005430187319e-01       7.605804423886e+01 
       4.167815177281e-01       6.948664215872e+01 
       4.343326005052e-01       6.321798700785e+01 
       4.534781221928e-01       5.726506857353e+01 
       4.746077725476e-01       5.155880364031e+01 
       4.982799942418e-01       4.606246667575e+01 
       5.253307350506e-01       4.073458593260e+01 
       5.570802860399e-01       3.551418141629e+01 
       5.957566329853e-01       3.033105666747e+01 
       6.454335917568e-01       2.509636943841e+01 
       7.142428380214e-01       1.971802818783e+01 
       8.192331654974e-01       1.418351489776e+01 
       9.895290630541e-01       8.965192087852e+00 
       1.238623981839e+00       5.159517107464e+00 
       1.559086323286e+00       2.907600588510e+00 
       1.962771564769e+00       1.626933650343e+00 
       2.470982998250e+00       9.047926722368e-01 
       3.110783288608e+00       5.003742633282e-01 
       3.916244132613e+00       2.753025446264e-01 
       4.930259257336e+00       1.507618474636e-01 
       6.206828665794e+00       8.219923232513e-02 
       7.813934334021e+00       4.463722051907e-02 
       9.837160499190e+00       2.414849215035e-02 
       1.238425133233e+01       1.301768704649e-02 
