# Matter power spectrum P(k) at redshift z=2.5
# for k=2.04844e-07 to 10.2771 h/Mpc,
# number of wavenumbers equal to 139
#    1:k (h/Mpc)              2:P (Mpc/h)^3        
       2.048441825312e-07       1.348465020917e-01 
       2.578835468467e-07       1.682053035361e-01 
       3.246561504089e-07       2.098165223190e-01 
       4.087178778450e-07       2.617216705794e-01 
       5.145453226737e-07       3.264672964800e-01 
       6.477741822337e-07       4.072299221860e-01 
       8.154993791182e-07       5.079718887058e-01 
       1.026652891674e-06       6.336357542044e-01 
       1.292479414421e-06       7.903867829600e-01 
       1.627135179035e-06       9.859154216321e-01 
       2.048441825312e-06       1.229814601624e+00 
       2.578835468467e-06       1.534050377170e+00 
       3.246561504089e-06       1.913548987140e+00 
       4.087178778450e-06       2.386929138006e+00 
       5.145453226737e-06       2.977415419402e+00 
       6.477741822337e-06       3.713977649656e+00 
       8.154993791182e-06       4.632752003895e+00 
       1.026652891674e-05       5.778813553404e+00 
       1.292479414421e-05       7.208387030689e+00 
       1.627135179035e-05       8.991603913478e+00 
       2.048441825312e-05       1.121594046803e+01 
       2.578835468467e-05       1.399050407693e+01 
       3.246561504089e-05       1.745137556563e+01 
       4.087178778450e-05       2.176826449648e+01 
       5.145453226737e-05       2.715279377809e+01 
       6.477741822337e-05       3.386880013001e+01 
       8.154993791182e-05       4.224511622278e+01 
       1.026652891674e-04       5.269138427962e+01 
       1.292479414421e-04       6.571752504788e+01 
       1.627135179035e-04       8.195752138328e+01 
       2.048441825312e-04       1.021981108030e+02 
       2.578835468467e-04       1.274127020092e+02 
       3.246561504089e-04       1.588001368614e+02 
       4.087178778450e-04       1.978265079111e+02 
       5.145453226737e-04       2.462657687921e+02 
       6.477741822337e-04       3.062312691322e+02 
       8.154993791182e-04       3.801865523983e+02 
       1.026652891674e-03       4.709222174684e+02 
       1.292479414421e-03       5.814863956266e+02 
       1.627135179035e-03       7.150428866753e+02 
       2.048441825312e-03       8.745754069794e+02 
       2.578835468467e-03       1.062337357190e+03 
       3.246561504089e-03       1.279093541900e+03 
       4.087178778450e-03       1.523139823616e+03 
       5.145453226737e-03       1.789032926671e+03 
       6.477741822337e-03       2.066191237368e+03 
       8.154993791182e-03       2.337532368806e+03 
       1.026652891674e-02       2.578408529793e+03 
       1.292479414421e-02       2.756530241364e+03 
       1.627135179027e-02       2.834412060737e+03 
       2.048441788594e-02       2.777494349470e+03 
       2.578812767242e-02       2.571864536302e+03 
       3.243908949890e-02       2.250301142419e+03 
       4.011565817764e-02       1.921474377182e+03 
       4.631963004703e-02       1.720668035216e+03 
       5.087459040287e-02       1.604448461894e+03 
       5.467400791239e-02       1.520625738675e+03 
       5.808696580762e-02       1.450940846683e+03 
       6.128140564462e-02       1.387714359614e+03 
       6.434762766025e-02       1.327229881724e+03 
       6.734039089330e-02       1.267665880514e+03 
       7.029597198863e-02       1.208285695084e+03 
       7.324011091423e-02       1.149046110518e+03 
       7.619211930055e-02       1.090362339399e+03 
       7.916718113607e-02       1.032935035364e+03 
       8.217772444613e-02       9.776029925231e+02 
       8.523428125120e-02       9.252113696594e+02 
       8.834604928550e-02       8.764951561471e+02 
       9.152127152885e-02       8.319812586306e+02 
       9.476749991272e-02       7.919149113615e+02 
       9.809178280597e-02       7.562151652315e+02 
       1.015008008055e-01       7.244636627211e+02 
       1.050009665187e-01       6.959315588715e+02 
       1.085984986693e-01       6.696486431836e+02 
       1.122994775233e-01       6.445168824606e+02 
       1.161098864995e-01       6.194627994824e+02 
       1.200356434482e-01       5.936119029691e+02 
       1.240826241703e-01       5.664531544468e+02 
       1.282566801404e-01       5.379509009523e+02 
       1.325636519975e-01       5.085636163982e+02 
       1.370093800966e-01       4.791472569046e+02 
       1.415997132394e-01       4.507547176882e+02 
       1.463405165884e-01       4.243762953065e+02 
       1.512376796951e-01       4.006884989365e+02 
       1.562971255294e-01       3.798779275423e+02 
       1.615248213675e-01       3.615902960764e+02 
       1.669267923778e-01       3.450277679030e+02 
       1.725091387343e-01       3.291854888996e+02 
       1.782780570748e-01       3.131733663001e+02 
       1.842398671222e-01       2.965193477484e+02 
       1.904010442880e-01       2.793258355707e+02 
       1.967682590928e-01       2.621916176476e+02 
       2.033484242718e-01       2.459184066822e+02 
       2.101487504918e-01       2.311353580098e+02 
       2.171768117071e-01       2.180210503139e+02 
       2.244406213238e-01       2.062541224386e+02 
       2.319487205660e-01       1.952145931374e+02 
       2.397102807321e-01       1.843327014411e+02 
       2.477352214507e-01       1.733905888042e+02 
       2.560343475999e-01       1.625901082821e+02 
       2.646195082981e-01       1.523456817952e+02 
       2.735037823600e-01       1.429579373592e+02 
       2.827016959090e-01       1.344091802856e+02 
       2.922294795655e-01       1.264199536694e+02 
       3.021053749229e-01       1.186995113549e+02 
       3.123500031173e-01       1.111677524238e+02 
       3.229868124852e-01       1.039579716690e+02 
       3.340426280674e-01       9.722356149903e+01 
       3.455483337404e-01       9.096423127824e+01 
       3.575397290975e-01       8.504678012704e+01 
       3.700586194814e-01       7.936581142303e+01 
       3.831542213558e-01       7.393487986202e+01 
       3.968850006020e-01       6.880952035870e+01 
       4.113211150993e-01       6.397711030622e+01 
       4.265477164759e-01       5.937376353992e+01 
       4.426694989164e-01       5.497237130077e+01 
       4.598171005567e-01       5.078370031332e+01 
       4.781563302385e-01       4.679292399369e+01 
       4.979018337189e-01       4.296611030168e+01 
       5.193379776624e-01       3.928966476697e+01 
       5.428519382665e-01       3.574766223832e+01 
       5.689883856524e-01       3.231250761077e+01 
       5.985444514268e-01       2.896057793970e+01 
       6.327445821793e-01       2.565938929718e+01 
       6.735853107211e-01       2.236876728023e+01 
       7.245699014507e-01       1.903498839052e+01 
       7.923976208341e-01       1.558767895017e+01 
       8.909375270647e-01       1.196175683311e+01 
       1.048017631827e+00       8.245859132559e+00 
       1.295290623467e+00       5.032163880986e+00 
       1.628833912251e+00       2.920598124258e+00 
       2.050550898671e+00       1.674911299302e+00 
       2.581490544418e+00       9.524322246467e-01 
       3.249904046637e+00       5.374825662673e-01 
       4.091386790204e+00       3.012256921464e-01 
       5.150750799667e+00       1.677600044438e-01 
       6.484411071520e+00       9.289523191492e-02 
       8.163389878456e+00       5.117034220785e-02 
       1.027709896437e+01       2.805107352824e-02 
