# Matter power spectrum P(k) at redshift z=0
# for k=1.90361e-07 to 12.0239 h/Mpc,
# number of wavenumbers equal to 140
#    1:k (h/Mpc)              2:P (Mpc/h)^3        
       1.903605867038e-07       1.557565097873e+00 
       2.396497800055e-07       1.942881023798e+00 
       3.017011979798e-07       2.423517756009e+00 
       3.798193049055e-07       3.023056089111e+00 
       4.781641748355e-07       3.770910315917e+00 
       6.019730307101e-07       4.703771337523e+00 
       7.578391455756e-07       5.867406773267e+00 
       9.540629584176e-07       7.318906385591e+00 
       1.201094102803e-06       9.129482980298e+00 
       1.512087887975e-06       1.138796619280e+01 
       1.903605867038e-06       1.420516055763e+01 
       2.396497800055e-06       1.771928164960e+01 
       3.017011979798e-06       2.210273695284e+01 
       3.798193049055e-06       2.757058403902e+01 
       4.781641748355e-06       3.439108082768e+01 
       6.019730307101e-06       4.289884515839e+01 
       7.578391455756e-06       5.351126853360e+01 
       9.540629584176e-06       6.674898780882e+01 
       1.201094102803e-05       8.326141621029e+01 
       1.512087887975e-05       1.038585803518e+02 
       1.903605867038e-05       1.295508135740e+02 
       2.396497800055e-05       1.615982299138e+02 
       3.017011979798e-05       2.015723604659e+02 
       3.798193049055e-05       2.514328862266e+02 
       4.781641748355e-05       3.136230549606e+02 
       6.019730307101e-05       3.911881152603e+02 
       7.578391455756e-05       4.879218953204e+02 
       9.540629584176e-05       6.085473857022e+02 
       1.201094102803e-04       7.589376056465e+02 
       1.512087887975e-04       9.463826537392e+02 
       1.903605867038e-04       1.179906784285e+03 
       2.396497800055e-04       1.470634213029e+03 
       3.017011979798e-04       1.832192380416e+03 
       3.798193049055e-04       2.281125484393e+03 
       4.781641748355e-04       2.837271072720e+03 
       6.019730307101e-04       3.524033205319e+03 
       7.578391455756e-04       4.368457367379e+03 
       9.540629584176e-04       5.400905628176e+03 
       1.201094102803e-03       6.653883776424e+03 
       1.512087887975e-03       8.159495417890e+03 
       1.903605867038e-03       9.945192287675e+03 
       2.396497800055e-03       1.202714807112e+04 
       3.017011979798e-03       1.440117054535e+04 
       3.798193049055e-03       1.703146540587e+04 
       4.781641748355e-03       1.983684982412e+04 
       6.019730307101e-03       2.260273103230e+04 
       7.578391455756e-03       2.523493730173e+04 
       9.540629584176e-03       2.738875081097e+04 
       1.201094102803e-02       2.869579152340e+04 
       1.512087887974e-02       2.874711612096e+04 
       1.903605858241e-02       2.719778761699e+04 
       2.396490105931e-02       2.398976843555e+04 
       3.015819598642e-02       1.966200711868e+04 
       3.754302639706e-02       1.557257429305e+04 
       4.396281812039e-02       1.326973886418e+04 
       4.858815821618e-02       1.217312171295e+04 
       5.237106482487e-02       1.149409130761e+04 
       5.573396963519e-02       1.097678630976e+04 
       5.886254770273e-02       1.052043790519e+04 
       6.185397452757e-02       1.007750893754e+04 
       6.476605056332e-02       9.624830135870e+03 
       6.763651436070e-02       9.153144667277e+03 
       7.049183599820e-02       8.662347631215e+03 
       7.335168649593e-02       8.158675800592e+03 
       7.623140777497e-02       7.652561858656e+03 
       7.914346986107e-02       7.156710962807e+03 
       8.209837672854e-02       6.684302713787e+03 
       8.510525387830e-02       6.247371496519e+03 
       8.817224306012e-02       5.855464135553e+03 
       9.130677523068e-02       5.514655884959e+03 
       9.451576386365e-02       5.226956479063e+03 
       9.780574452471e-02       4.990084813611e+03 
       1.011829771916e-01       4.797588677111e+03 
       1.046535221172e-01       4.639309723997e+03 
       1.082232965105e-01       4.502267947611e+03 
       1.118981170688e-01       4.372067007393e+03 
       1.156837319468e-01       4.234856095798e+03 
       1.195858447923e-01       4.079674177259e+03 
       1.236101328445e-01       3.900708607845e+03 
       1.277622606716e-01       3.698767724862e+03 
       1.320478908430e-01       3.481295675470e+03 
       1.364726926444e-01       3.260648087777e+03 
       1.410423498283e-01       3.050983251804e+03 
       1.457625683126e-01       2.864671962964e+03 
       1.506390846943e-01       2.709269862970e+03 
       1.556776764122e-01       2.585790143288e+03 
       1.608841743787e-01       2.488565393722e+03 
       1.662644788820e-01       2.406729790031e+03 
       1.718245795578e-01       2.327244026700e+03 
       1.775705802193e-01       2.239016991007e+03 
       1.835087293426e-01       2.136864809021e+03 
       1.896454570090e-01       2.023407758603e+03 
       1.959874191428e-01       1.907559557512e+03 
       2.025415499262e-01       1.800119599429e+03 
       2.093151233684e-01       1.708745558999e+03 
       2.163158251325e-01       1.634781931888e+03 
       2.235518359258e-01       1.573209190197e+03 
       2.310319280299e-01       1.515589166058e+03 
       2.387655769321e-01       1.454719612258e+03 
       2.467630905291e-01       1.388552404510e+03 
       2.550357590592e-01       1.320750826685e+03 
       2.635960298274e-01       1.257385949969e+03 
       2.724577119803e-01       1.202336773976e+03 
       2.816362181822e-01       1.154843932303e+03 
       2.911488521470e-01       1.110753512097e+03 
       3.010151538218e-01       1.066223707149e+03 
       3.112573178521e-01       1.020745787267e+03 
       3.219007062250e-01       9.767910382362e+02 
       3.329744832982e-01       9.366932334852e+02 
       3.445124117255e-01       9.002311782333e+02 
       3.565538625420e-01       8.653363610924e+02 
       3.691451141456e-01       8.307137324643e+02 
       3.823410467654e-01       7.970169248891e+02 
       3.962073871992e-01       7.652938847831e+02 
       4.108237331457e-01       7.352748785174e+02 
       4.262877045847e-01       7.060002785433e+02 
       4.427207619529e-01       6.773370929946e+02 
       4.602765534155e-01       6.496676340589e+02 
       4.791532130774e-01       6.227482628105e+02 
       4.996120401583e-01       5.961410046641e+02 
       5.220068853736e-01       5.698240086750e+02 
       5.468323157074e-01       5.435670678852e+02 
       5.748064468058e-01       5.169834478177e+02 
       6.070217071987e-01       4.897167824309e+02 
       6.452381522823e-01       4.611350126286e+02 
       6.924993105491e-01       4.303302102529e+02 
       7.545304566055e-01       3.957989177737e+02 
       8.430475307680e-01       3.550749048236e+02 
       9.821759002528e-01       3.049497839451e+02 
       1.205003197772e+00       2.465024109416e+02 
       1.513770383523e+00       1.908650080124e+02 
       1.905655095674e+00       1.436807036877e+02 
       2.399077333780e+00       1.049080123011e+02 
       3.020259420175e+00       7.415910589008e+01 
       3.802281334269e+00       5.081204804647e+01 
       4.786788594501e+00       3.385196612242e+01 
       6.026209802504e+00       2.201492713390e+01 
       7.586548657176e+00       1.403197257895e+01 
       9.550898892331e+00       8.799166277895e+00 
       1.202386932103e+01       5.446925863086e+00 
