# Matter power spectrum P(k) at redshift z=1.5
# for k=1.94723e-07 to 12.299 h/Mpc,
# number of wavenumbers equal to 140
#    1:k (h/Mpc)              2:P (Mpc/h)^3        
       1.947228908595e-07       3.851313462581e-01 
       2.451415955611e-07       4.804064918121e-01 
       3.086149841396e-07       5.992511373011e-01 
       3.885232459938e-07       7.474959882794e-01 
       4.891217874544e-07       9.324141702964e-01 
       6.157678476885e-07       1.163078059600e+00 
       7.752057912208e-07       1.450804387694e+00 
       9.759262699379e-07       1.809709456554e+00 
       1.228618381262e-06       2.257401703797e+00 
       1.546738901569e-06       2.815845595939e+00 
       1.947228908595e-06       3.512439228123e+00 
       2.451415955611e-06       4.381358497494e+00 
       3.086149841396e-06       5.465233785598e+00 
       3.885232459938e-06       6.817241390722e+00 
       4.891217874544e-06       8.503712279837e+00 
       6.157678476885e-06       1.060738607278e+01 
       7.752057912208e-06       1.323146974962e+01 
       9.759262699379e-06       1.650469990087e+01 
       1.228618381262e-05       2.058765629934e+01 
       1.546738901569e-05       2.568063532591e+01 
       1.947228908595e-05       3.203346722934e+01 
       2.451415955611e-05       3.995775420793e+01 
       3.086149841396e-05       4.984212058934e+01 
       3.885232459938e-05       6.217120523833e+01 
       4.891217874544e-05       7.754929230509e+01 
       6.157678476885e-05       9.672966944301e+01 
       7.752057912208e-05       1.206510154539e+02 
       9.759262699379e-05       1.504823312702e+02 
       1.228618381262e-04       1.876780884789e+02 
       1.546738901569e-04       2.340452724998e+02 
       1.947228908595e-04       2.918236366386e+02 
       2.451415955611e-04       3.637793859870e+02 
       3.086149841396e-04       4.533100782651e+02 
       3.885232459938e-04       5.645539813274e+02 
       4.891217874544e-04       7.024899449298e+02 
       6.157678476885e-04       8.730050228861e+02 
       7.752057912208e-04       1.082900627509e+03 
       9.759262699379e-04       1.339806719252e+03 
       1.228618381262e-03       1.651955484114e+03 
       1.546738901569e-03       2.027669092583e+03 
       1.947228908595e-03       2.474308019464e+03 
       2.451415955611e-03       2.996631015251e+03 
       3.086149841396e-03       3.594605764648e+03 
       3.885232459938e-03       4.260562953593e+03 
       4.891217874544e-03       4.975687453281e+03 
       6.157678476885e-03       5.706285877126e+03 
       7.752057912208e-03       6.400338310372e+03 
       9.759262699379e-03       6.984940850507e+03 
       1.228618381262e-02       7.366586803769e+03 
       1.546738901567e-02       7.438943732894e+03 
       1.947228896317e-02       7.108203492090e+03 
       2.451406033193e-02       6.348966329064e+03 
       3.084707990960e-02       5.285259420064e+03 
       3.835110137905e-02       4.258739327131e+03 
       4.476387445924e-02       3.672183743856e+03 
       4.940000918007e-02       3.382025224176e+03 
       5.320928753391e-02       3.196784186877e+03 
       5.660389754769e-02       3.053068774237e+03 
       5.976641695775e-02       2.925329798734e+03 
       6.279299491196e-02       2.801308122359e+03 
       6.574107528551e-02       2.674930438766e+03 
       6.864828858788e-02       2.543701892914e+03 
       7.154109850799e-02       2.407508785468e+03 
       7.443921391414e-02       2.267909182660e+03 
       7.735803446419e-02       2.127587876376e+03 
       8.031009690044e-02       1.989864102909e+03 
       8.330597585232e-02       1.858225526469e+03 
       8.635486907161e-02       1.735900549509e+03 
       8.946499109603e-02       1.625493968747e+03 
       9.264384577002e-02       1.528708683957e+03 
       9.589841941610e-02       1.446164154126e+03 
       9.923532040848e-02       1.377312895944e+03 
       1.026608815477e-01       1.320453440818e+03 
       1.061812359940e-01       1.272847409305e+03 
       1.098023740135e-01       1.230961708219e+03 
       1.135301855657e-01       1.190862849267e+03 
       1.173704923143e-01       1.148766713514e+03 
       1.213290716937e-01       1.101689820727e+03 
       1.254116750350e-01       1.048070197511e+03 
       1.296240413318e-01       9.881681044655e+02 
       1.339719079494e-01       9.240692724671e+02 
       1.384610193953e-01       8.592166463373e+02 
       1.430971351523e-01       7.975625111175e+02 
       1.478860374954e-01       7.425759315955e+02 
       1.528335401696e-01       6.963847143408e+02 
       1.579454987750e-01       6.592638954072e+02 
       1.632278236848e-01       6.295751945399e+02 
       1.686864963130e-01       6.041902638462e+02 
       1.743275895359e-01       5.793776356713e+02 
       1.801572930718e-01       5.520028298943e+02 
       1.861819446214e-01       5.206568343732e+02 
       1.924080675869e-01       4.861731796911e+02 
       1.988424162166e-01       4.511736850898e+02 
       2.054920290753e-01       4.187977707503e+02 
       2.123642918308e-01       3.912498482777e+02 
       2.194670104855e-01       3.688698205656e+02 
       2.268084963821e-01       3.501203555585e+02 
       2.343976645980e-01       3.324803856130e+02 
       2.422441477302e-01       3.138467899459e+02 
       2.503584276036e-01       2.936849270969e+02 
       2.587519881295e-01       2.731556005871e+02 
       2.674374934790e-01       2.541014589328e+02 
       2.764289969543e-01       2.376629723944e+02 
       2.857421875762e-01       2.235538629051e+02 
       2.953946835633e-01       2.104705844767e+02 
       3.054063847934e-01       1.972523076285e+02 
       3.157999002699e-01       1.837964955119e+02 
       3.266010720268e-01       1.709092591045e+02 
       3.378396244143e-01       1.593126882603e+02 
       3.495499783008e-01       1.489017129940e+02 
       3.617722849004e-01       1.390042019290e+02 
       3.745537560444e-01       1.292320615624e+02 
       3.879504005285e-01       1.198312642036e+02 
       4.020293258651e-01       1.111473306581e+02 
       4.168718417076e-01       1.030763570468e+02 
       4.325777232678e-01       9.530641446560e+01 
       4.492711919672e-01       8.782342586446e+01 
       4.671095046649e-01       8.077494939553e+01 
       4.862956232476e-01       7.408365098008e+01 
       5.070974839372e-01       6.762587110710e+01 
       5.298783597385e-01       6.143514044967e+01 
       5.551467165318e-01       5.546887066264e+01 
       5.836421398498e-01       4.965665666791e+01 
       6.164921307935e-01       4.396825083936e+01 
       6.555180639656e-01       3.832444724890e+01 
       7.038797038007e-01       3.264429111543e+01 
       7.675428782217e-01       2.681444992489e+01 
       8.587501378234e-01       2.072286437543e+01 
       1.002594687759e+00       1.445998399801e+01 
       1.232228960480e+00       8.888245455300e+00 
       1.548400088246e+00       5.138279383250e+00 
       1.949262615968e+00       2.931774415851e+00 
       2.453976014295e+00       1.659490441313e+00 
       3.089372764201e+00       9.326198379581e-01 
       3.889289879358e+00       5.207180850789e-01 
       4.896325862957e+00       2.890138175824e-01 
       6.164109053302e+00       1.595411408833e-01 
       7.760153528273e+00       8.763125093586e-02 
       9.769454476166e+00       4.791239882635e-02 
       1.229901449941e+01       2.608480713107e-02 
