# Matter power spectrum P(k) at redshift z=2.5
# for k=1.68006e-07 to 10.6144 h/Mpc,
# number of wavenumbers equal to 140
#    1:k (h/Mpc)              2:P (Mpc/h)^3        
       1.680061928291e-07       3.740138435436e-01 
       2.115072654913e-07       4.665387019680e-01 
       2.662718713061e-07       5.819526846067e-01 
       3.352164252332e-07       7.259181831403e-01 
       4.220124761769e-07       9.054983711440e-01 
       5.312822303533e-07       1.129503733992e+00 
       6.688447006264e-07       1.408924324559e+00 
       8.420255901624e-07       1.757468950583e+00 
       1.060047412836e-06       2.192237746480e+00 
       1.334520625727e-06       2.734561127631e+00 
       1.680061928291e-06       3.411046278497e+00 
       2.115072654913e-06       4.254882517082e+00 
       2.662718713061e-06       5.307469561333e+00 
       3.352164252332e-06       6.620448560471e+00 
       4.220124761769e-06       8.258235478899e+00 
       5.312822303533e-06       1.030118103602e+01 
       6.688447006264e-06       1.284951202406e+01 
       8.420255901625e-06       1.602824696744e+01 
       1.060047412836e-05       1.999332655772e+01 
       1.334520625727e-05       2.493925802317e+01 
       1.680061928291e-05       3.110864550944e+01 
       2.115072654913e-05       3.880406797552e+01 
       2.662718713061e-05       4.840287549392e+01 
       3.352164252332e-05       6.037560642507e+01 
       4.220124761769e-05       7.530888276881e+01 
       5.312822303533e-05       9.393381544928e+01 
       6.688447006264e-05       1.171611337760e+02 
       8.420255901625e-05       1.461244090677e+02 
       1.060047412836e-04       1.822328028129e+02 
       1.334520625727e-04       2.272345843800e+02 
       1.680061928291e-04       2.832919506577e+02 
       2.115072654913e-04       3.530659230520e+02 
       2.662718713061e-04       4.398064511691e+02 
       3.352164252332e-04       5.474361542216e+02 
       4.220124761769e-04       6.806054505403e+02 
       5.312822303533e-04       8.446833660007e+02 
       6.688447006264e-04       1.045639185938e+03 
       8.420255901625e-04       1.289778710041e+03 
       1.060047412836e-03       1.583318997328e+03 
       1.334520625727e-03       1.931723781958e+03 
       1.680061928291e-03       2.338493306188e+03 
       2.115072654913e-03       2.803222122303e+03 
       2.662718713061e-03       3.319479541669e+03 
       3.352164252332e-03       3.872536070109e+03 
       4.220124761769e-03       4.436923377216e+03 
       5.312822303533e-03       4.974819919365e+03 
       6.688447006264e-03       5.435467115707e+03 
       8.420255901625e-03       5.756130612437e+03 
       1.060047412836e-02       5.865589889415e+03 
       1.334520625726e-02       5.693280562271e+03 
       1.680061926686e-02       5.191091027981e+03 
       2.115070568079e-02       4.376108835711e+03 
       2.662271656615e-02       3.385170440063e+03 
       3.330384285253e-02       2.494601877747e+03 
       3.962959422735e-02       2.001097547040e+03 
       4.415639212055e-02       1.797458710962e+03 
       4.776972672250e-02       1.686657389629e+03 
       5.094082831264e-02       1.607482362392e+03 
       5.386942480982e-02       1.538010649155e+03 
       5.665678752736e-02       1.468598278411e+03 
       5.936180936399e-02       1.394923484628e+03 
       6.202230159897e-02       1.315621671479e+03 
       6.466443753044e-02       1.231232734632e+03 
       6.730745811065e-02       1.143567882147e+03 
       6.996623308117e-02       1.055212695498e+03 
       7.265275388051e-02       9.690819601818e+02 
       7.537705271447e-02       8.880196228930e+02 
       7.814779399287e-02       8.144648433981e+02 
       8.097266904426e-02       7.502076376729e+02 
       8.385866759167e-02       6.962434859212e+02 
       8.681226915986e-02       6.527186811967e+02 
       8.983958078378e-02       6.189435931090e+02 
       9.294643768242e-02       5.934523935637e+02 
       9.613847775308e-02       5.741058217860e+02 
       9.942119715836e-02       5.582595834189e+02 
       1.027999920118e-01       5.430350358943e+02 
       1.062801897051e-01       5.257131635640e+02 
       1.098670724594e-01       5.042158712710e+02 
       1.135658950495e-01       4.775633310886e+02 
       1.173818982227e-01       4.461433315225e+02 
       1.213203190560e-01       4.116506056225e+02 
       1.253863993070e-01       3.766611822042e+02 
       1.295853926924e-01       3.439567663729e+02 
       1.339225719536e-01       3.158185430848e+02 
       1.384032365139e-01       2.935008016569e+02 
       1.430327215089e-01       2.769910246252e+02 
       1.478164089467e-01       2.650588295066e+02 
       1.527597417440e-01       2.555720192915e+02 
       1.578682413767e-01       2.460766710181e+02 
       1.631475298771e-01       2.345746418438e+02 
       1.686033569109e-01       2.202492831410e+02 
       1.742416326760e-01       2.037585482398e+02 
       1.800684673878e-01       1.868606834883e+02 
       1.860902181576e-01       1.715353964882e+02 
       1.923135441469e-01       1.590769621869e+02 
       1.987454709892e-01       1.495968672824e+02 
       2.053934656456e-01       1.420996192171e+02 
       2.122655230922e-01       1.350608836527e+02 
       2.193702665751e-01       1.272639061119e+02 
       2.267170636086e-01       1.184522265478e+02 
       2.343161604960e-01       1.093490242219e+02 
       2.421788389387e-01       1.010181089048e+02 
       2.503175993517e-01       9.407312552859e+01 
       2.587463768845e-01       8.831933019517e+01 
       2.674807979918e-01       8.302865807278e+01 
       2.765384878667e-01       7.758609437048e+01 
       2.859394423810e-01       7.196061563300e+01 
       2.957064827463e-01       6.658843275507e+01 
       3.058658174231e-01       6.183722368553e+01 
       3.164477446912e-01       5.764264602548e+01 
       3.274875419597e-01       5.366626884819e+01 
       3.390266062817e-01       4.972293122974e+01 
       3.511139376924e-01       4.593598562260e+01 
       3.638080979115e-01       4.246901446478e+01 
       3.771798399499e-01       3.927277236055e+01 
       3.913157034863e-01       3.620512446034e+01 
       4.063230316543e-01       3.325927242155e+01 
       4.223371328562e-01       3.050066439780e+01 
       4.395317727823e-01       2.789859898411e+01 
       4.581350067794e-01       2.540000001613e+01 
       4.784539002124e-01       2.301743749184e+01 
       5.009146895421e-01       2.073695149758e+01 
       5.261311366967e-01       1.853005420395e+01 
       5.550274269757e-01       1.638635448112e+01 
       5.890738682923e-01       1.427795863259e+01 
       6.307738934543e-01       1.217760077785e+01 
       6.847533307856e-01       1.004784982893e+01 
       7.603365217591e-01       7.848690721893e+00 
       8.770063604221e-01       5.585623640045e+00 
       1.065841844334e+00       3.489968777497e+00 
       1.336397792172e+00       2.007115905471e+00 
       1.682267952539e+00       1.134523674117e+00 
       2.117848931134e+00       6.366613836714e-01 
       2.666213836861e+00       3.550058401768e-01 
       3.356564352501e+00       1.968056058573e-01 
       4.225664159686e+00       1.085242568534e-01 
       5.319795992337e+00       5.955151546810e-02 
       6.697226360314e+00       3.253134232317e-02 
       8.431308453536e+00       1.769702532340e-02 
       1.061438846683e+01       9.589891948366e-03 
