# Matter power spectrum P(k) at redshift z=0
# for k=2.26914e-07 to 11.3846 h/Mpc,
# number of wavenumbers equal to 139
#    1:k (h/Mpc)              2:P (Mpc/h)^3        
       2.269141159456e-07       7.268599264031e-01 
       2.856679468588e-07       9.107532413079e-01 
       3.596346376356e-07       1.141170996173e+00 
       4.527531842808e-07       1.429883730112e+00 
       5.699824889618e-07       1.791639891766e+00 
       7.175654396317e-07       2.244919240783e+00 
       9.033613665776e-07       2.812876857112e+00 
       1.137264580418e-06       3.524525980714e+00 
       1.431731280221e-06       4.416220104388e+00 
       1.802442891531e-06       5.533510028181e+00 
       2.269141159456e-06       6.933470735530e+00 
       2.856679468588e-06       8.687616947761e+00 
       3.596346376356e-06       1.088555627821e+01 
       4.527531842808e-06       1.363956656786e+01 
       5.699824889618e-06       1.709033116391e+01 
       7.175654396317e-06       2.141412499122e+01 
       9.033613665776e-06       2.683181824872e+01 
       1.137264580418e-05       3.362015716563e+01 
       1.431731280221e-05       4.212589706194e+01 
       1.802442891531e-05       5.278350768431e+01 
       2.269141159456e-05       6.613735128388e+01 
       2.856679468588e-05       8.286945848098e+01 
       3.596346376356e-05       1.038343051464e+02 
       4.527531842808e-05       1.301023358098e+02 
       5.699824889618e-05       1.630143954672e+02 
       7.175654396317e-05       2.042497290009e+02 
       9.033613665776e-05       2.559107824947e+02 
       1.137264580418e-04       3.206286689529e+02 
       1.431731280221e-04       4.016937710120e+02 
       1.802442891531e-04       5.032163891872e+02 
       2.269141159456e-04       6.303223029793e+02 
       2.856679468588e-04       7.893870817498e+02 
       3.596346376356e-04       9.883102488567e+02 
       4.527531842808e-04       1.236825310515e+03 
       5.699824889618e-04       1.546834240682e+03 
       7.175654396317e-04       1.932745815697e+03 
       9.033613665776e-04       2.411781150264e+03 
       1.137264580418e-03       3.004160989578e+03 
       1.431731280221e-03       3.732983710621e+03 
       1.802442891531e-03       4.623539651178e+03 
       2.269141159456e-03       5.701803395314e+03 
       2.856679468588e-03       6.991615072852e+03 
       3.596346376356e-03       8.510139012227e+03 
       4.527531842808e-03       1.026127843772e+04 
       5.699824889618e-03       1.216431992407e+04 
       7.175654396317e-03       1.426011597539e+04 
       9.033613665776e-03       1.640190546333e+04 
       1.137264580418e-02       1.841976351735e+04 
       1.431731280221e-02       2.006875423036e+04 
       1.802442891519e-02       2.103637963041e+04 
       2.269141107987e-02       2.099763700218e+04 
       2.856649523281e-02       1.976056925605e+04 
       3.593016405727e-02       1.751236120382e+04 
       4.436892645167e-02       1.512686918728e+04 
       5.110812802353e-02       1.371028589022e+04 
       5.607669952625e-02       1.292867564347e+04 
       6.023481506102e-02       1.239387502313e+04 
       6.397654939471e-02       1.196558489615e+04 
       6.748233390240e-02       1.158129565363e+04 
       7.084963903615e-02       1.120817088436e+04 
       7.413777078314e-02       1.082809101254e+04 
       7.738611810713e-02       1.043200430051e+04 
       8.062268604702e-02       1.001737508404e+04 
       8.386852097852e-02       9.586713265462e+03 
       8.714019454319e-02       9.146417045026e+03 
       9.045128730495e-02       8.705623370920e+03 
       9.381332030285e-02       8.274977047712e+03 
       9.723636428244e-02       7.865345308264e+03 
       1.007294517482e-01       7.486563607244e+03 
       1.043008635056e-01       7.146313837692e+03 
       1.079583325215e-01       6.849218993928e+03 
       1.117091916552e-01       6.596208842334e+03 
       1.155604822590e-01       6.384192898324e+03 
       1.195190348577e-01       6.206086452956e+03 
       1.235915295003e-01       6.051274778487e+03 
       1.277845410727e-01       5.906639921264e+03 
       1.321045733603e-01       5.758246800003e+03 
       1.365580846593e-01       5.593643420483e+03 
       1.411515070813e-01       5.404440674891e+03 
       1.458912612552e-01       5.188510585480e+03 
       1.507837678416e-01       4.950977072961e+03 
       1.558354570839e-01       4.703379227348e+03 
       1.610527774966e-01       4.460984575284e+03 
       1.664422047121e-01       4.238945663852e+03 
       1.720102514599e-01       4.048417627573e+03 
       1.777634796192e-01       3.893675651101e+03 
       1.837085152693e-01       3.770881515091e+03 
       1.898520676457e-01       3.668831070889e+03 
       1.962009529049e-01       3.571868352563e+03 
       2.027621235926e-01       3.464773015992e+03 
       2.095427047202e-01       3.338385278676e+03 
       2.165500373654e-01       3.193483309033e+03 
       2.237917307536e-01       3.040425572241e+03 
       2.312757238431e-01       2.894180245155e+03 
       2.390103575438e-01       2.767223074784e+03 
       2.470044588675e-01       2.663943162619e+03 
       2.552674385447e-01       2.579066425745e+03 
       2.638094039828e-01       2.500729734038e+03 
       2.726412898978e-01       2.417082104466e+03 
       2.817750095732e-01       2.323165008855e+03 
       2.912236305252e-01       2.223467546647e+03 
       3.010015794429e-01       2.127887458586e+03 
       3.111248827176e-01       2.044129280377e+03 
       3.216114507868e-01       1.972432747085e+03 
       3.324814170711e-01       1.906336464979e+03 
       3.437575457084e-01       1.838611150771e+03 
       3.554657269496e-01       1.767408507524e+03 
       3.676355854818e-01       1.696935354949e+03 
       3.803012358650e-01       1.632156018473e+03 
       3.935022318813e-01       1.573493197252e+03 
       4.072847747177e-01       1.517188508446e+03 
       4.217032713863e-01       1.460326389486e+03 
       4.368223742337e-01       1.403999832886e+03 
       4.527196923504e-01       1.350676122136e+03 
       4.694894589083e-01       1.300201509885e+03 
       4.872475870017e-01       1.250562653147e+03 
       5.061387898953e-01       1.201377388147e+03 
       5.263468526033e-01       1.153657275777e+03 
       5.481098603594e-01       1.107067792135e+03 
       5.717434959227e-01       1.060664774992e+03 
       5.976779997014e-01       1.014520467358e+03 
       6.265193451707e-01       9.682616672916e+02 
       6.591556691535e-01       9.211338282853e+02 
       6.969536436850e-01       8.724980616738e+02 
       7.421466246519e-01       8.210937350769e+02 
       7.986639290604e-01       7.650663371515e+02 
       8.740417954236e-01       7.012199445157e+02 
       9.839100978433e-01       6.241296822883e+02 
       1.159435067700e+00       5.267559612796e+02 
       1.434685335635e+00       4.127477075100e+02 
       1.804354286611e+00       3.048101473408e+02 
       2.271519930536e+00       2.148149232808e+02 
       2.859674084798e+00       1.453792149727e+02 
       3.600116374771e+00       9.523387848900e+01 
       4.532277989615e+00       6.084871220211e+01 
       5.705799934442e+00       3.816582149382e+01 
       7.183176532083e+00       2.361824175812e+01 
       9.043083473643e+00       1.447458804632e+01 
       1.138456758594e+01       8.809306114222e+00 
