# Matter power spectrum P(k) at redshift z=1.5
# for k=2.24274e-07 to 11.252 h/Mpc,
# number of wavenumbers equal to 139
#    1:k (h/Mpc)              2:P (Mpc/h)^3        
       2.242741172773e-07       2.213846470819e-01 
       2.823443854481e-07       2.761515589173e-01 
       3.554505217180e-07       3.444669017207e-01 
       4.474856944263e-07       4.296823338926e-01 
       5.633511121276e-07       5.359786586672e-01 
       7.092170308199e-07       6.685709408379e-01 
       8.928513425764e-07       8.339643658137e-01 
       1.124033244124e-06       1.040273393706e+00 
       1.415074014729e-06       1.297619866415e+00 
       1.781472636712e-06       1.618629598996e+00 
       2.242741172773e-06       2.019051818181e+00 
       2.823443854481e-06       2.518531835173e+00 
       3.554505217180e-06       3.141574859561e+00 
       4.474856944263e-06       3.918748230598e+00 
       5.633511121276e-06       4.888181034268e+00 
       7.092170308199e-06       6.097434647282e+00 
       8.928513425764e-06       7.605835921007e+00 
       1.124033244124e-05       9.487387346707e+00 
       1.415074014729e-05       1.183439674433e+01 
       1.781472636712e-05       1.476200406987e+01 
       2.242741172773e-05       1.841382648524e+01 
       2.823443854481e-05       2.296899678624e+01 
       3.554505217180e-05       2.865093680071e+01 
       4.474856944263e-05       3.573828890613e+01 
       5.633511121276e-05       4.457852759573e+01 
       7.092170308199e-05       5.560489047090e+01 
       8.928513425764e-05       6.935740351468e+01 
       1.124033244124e-04       8.650892235867e+01 
       1.415074014729e-04       1.078972525237e+02 
       1.781472636712e-04       1.345645071844e+02 
       2.242741172773e-04       1.678048299358e+02 
       2.823443854481e-04       2.092213016324e+02 
       3.554505217180e-04       2.607920094661e+02 
       4.474856944263e-04       3.249435242097e+02 
       5.633511121276e-04       4.046270714559e+02 
       7.092170308199e-04       5.033886200827e+02 
       8.928513425764e-04       6.254201492404e+02 
       1.124033244124e-03       7.755765535455e+02 
       1.415074014729e-03       9.593333345786e+02 
       1.781472636712e-03       1.182618438503e+03 
       2.242741172773e-03       1.451389206131e+03 
       2.823443854481e-03       1.770873615121e+03 
       3.554505217180e-03       2.144438582023e+03 
       4.474856944263e-03       2.571952204716e+03 
       5.633511121276e-03       3.043542989780e+03 
       7.092170308199e-03       3.550696586195e+03 
       8.928513425764e-03       4.063969388184e+03 
       1.124033244124e-02       4.541002080847e+03 
       1.415074014729e-02       4.921427665502e+03 
       1.781472636703e-02       5.128845026400e+03 
       2.242741129607e-02       5.084664950977e+03 
       2.823417652089e-02       4.744619762570e+03 
       3.551489004025e-02       4.159570203491e+03 
       4.390064472153e-02       3.547684909239e+03 
       5.065316326902e-02       3.184114423640e+03 
       5.561700044445e-02       2.983988279776e+03 
       5.976162050851e-02       2.846619235792e+03 
       6.348665128656e-02       2.736182677022e+03 
       6.697427397969e-02       2.637056045529e+03 
       7.032258390340e-02       2.541237848860e+03 
       7.359112754131e-02       2.444450377248e+03 
       7.681938343904e-02       2.344651499527e+03 
       8.003538061935e-02       2.241346418215e+03 
       8.326015876972e-02       2.135185468842e+03 
       8.651026772566e-02       2.027658428075e+03 
       8.979925849733e-02       1.920811247844e+03 
       9.313861847349e-02       1.816962115406e+03 
       9.653838251655e-02       1.718419677309e+03 
       1.000075459828e-01       1.627217328265e+03 
       1.035543517692e-01       1.544882274587e+03 
       1.071864944363e-01       1.472255263363e+03 
       1.109112680720e-01       1.409373406033e+03 
       1.147356749601e-01       1.355425300003e+03 
       1.186665062926e-01       1.308789688455e+03 
       1.227104025392e-01       1.267172697310e+03 
       1.268738987712e-01       1.227858436229e+03 
       1.311634587311e-01       1.188076027484e+03 
       1.355855004506e-01       1.145453784398e+03 
       1.401464155564e-01       1.098485192434e+03 
       1.448525839675e-01       1.046887676518e+03 
       1.497103853963e-01       9.917254995988e+02 
       1.547262088706e-01       9.352118593636e+02 
       1.599064613751e-01       8.802002815770e+02 
       1.652575766274e-01       8.294836828633e+02 
       1.707860249565e-01       7.850885423482e+02 
       1.764983252208e-01       7.477514269224e+02 
       1.824010596838e-01       7.167118667685e+02 
       1.885008927491e-01       6.898929251504e+02 
       1.948045944533e-01       6.644796073218e+02 
       2.013190696058e-01       6.378065137499e+02 
       2.080513934728e-01       6.083016454266e+02 
       2.150088549175e-01       5.760881174666e+02 
       2.221990079435e-01       5.428925509316e+02 
       2.296297326571e-01       5.112255161064e+02 
       2.373093067685e-01       4.832080481907e+02 
       2.452464889154e-01       4.596166586604e+02 
       2.534506153304e-01       4.395937033104e+02 
       2.619317117021e-01       4.211610854948e+02 
       2.707006225396e-01       4.023233376114e+02 
       2.797691609549e-01       3.821921263727e+02 
       2.891502825995e-01       3.614139211412e+02 
       2.988582885624e-01       3.415615254524e+02 
       3.089090634658e-01       3.239238871187e+02 
       3.193203568824e-01       3.086032095645e+02 
       3.301121187150e-01       2.945719547696e+02 
       3.413069025618e-01       2.806089221058e+02 
       3.529303556884e-01       2.663236908485e+02 
       3.650118205372e-01       2.523388300225e+02 
       3.775850815030e-01       2.394809531371e+02 
       3.906893031336e-01       2.278726982124e+02 
       4.043702237621e-01       2.169024373744e+02 
       4.186816946640e-01       2.060294112701e+02 
       4.336876936534e-01       1.953808285165e+02 
       4.494650010256e-01       1.853820762730e+02 
       4.661068174071e-01       1.760421636199e+02 
       4.837277490494e-01       1.670003616261e+02 
       5.024708250565e-01       1.581505442951e+02 
       5.225176143549e-01       1.496789366089e+02 
       5.441032148053e-01       1.415493832686e+02 
       5.675391664608e-01       1.335765396118e+02 
       5.932497695075e-01       1.257814683509e+02 
       6.218321330111e-01       1.181261610740e+02 
       6.541605145394e-01       1.104867472594e+02 
       6.915785511535e-01       1.028017683244e+02 
       7.362785739977e-01       9.491344694093e+01 
       7.921105069662e-01       8.662628938254e+01 
       8.664430878713e-01       7.762319817607e+01 
       9.745397644966e-01       6.745173127336e+01 
       1.146970620147e+00       5.577642429030e+01 
       1.418100978419e+00       4.368411063340e+01 
       1.783339804808e+00       3.342775033690e+01 
       2.245061115132e+00       2.523505138569e+01 
       2.826364396861e+00       1.867845751784e+01 
       3.558181962161e+00       1.347792565117e+01 
       4.479485691952e+00       9.441728261063e+00 
       5.639338369367e+00       6.406904216851e+00 
       7.099506378902e+00       4.212642755846e+00 
       8.937748991595e+00       2.691798202197e+00 
       1.125195932976e+01       1.678764631562e+00 
