# Matter power spectrum P(k) at redshift z=1.5
# for k=1.72855e-07 to 10.9212 h/Mpc,
# number of wavenumbers equal to 140
#    1:k (h/Mpc)              2:P (Mpc/h)^3        
       1.728546265440e-07       8.601082922274e-01 
       2.176110819024e-07       1.066603818636e+00 
       2.739561208950e-07       1.322674965084e+00 
       3.448903223112e-07       1.640223887761e+00 
       4.341911910395e-07       2.034010221257e+00 
       5.466143239768e-07       2.522337104326e+00 
       6.881466629051e-07       3.127901905410e+00 
       8.663253209726e-07       3.878851189866e+00 
       1.090638961453e-06       4.810088961458e+00 
       1.373033103666e-06       5.964898981466e+00 
       1.728546265440e-06       7.396956563717e+00 
       2.176110819024e-06       9.172823337954e+00 
       2.739561208950e-06       1.137504091721e+01 
       3.448903223112e-06       1.410596719494e+01 
       4.341911910395e-06       1.749253349330e+01 
       5.466143239768e-06       2.169214345954e+01 
       6.881466629051e-06       2.689998746880e+01 
       8.663253209726e-06       3.335811175233e+01 
       1.090638961453e-05       4.136666212603e+01 
       1.373033103666e-05       5.129782194014e+01 
       1.728546265440e-05       6.361308590360e+01 
       2.176110819024e-05       7.888466082294e+01 
       2.739561208950e-05       9.782196444797e+01 
       3.448903223112e-05       1.213044081700e+02 
       4.341911910395e-05       1.504218969597e+02 
       5.466143239768e-05       1.865247525255e+02 
       6.881466629051e-05       2.312850343118e+02 
       8.663253209726e-05       2.867714357360e+02 
       1.090638961453e-04       3.555399314737e+02 
       1.373033103666e-04       4.407418785272e+02 
       1.728546265440e-04       5.462498281571e+02 
       2.176110819024e-04       6.767980258473e+02 
       2.739561208950e-04       8.381281665849e+02 
       3.448903223112e-04       1.037119973481e+03 
       4.341911910395e-04       1.281870351381e+03 
       5.466143239768e-04       1.581668612738e+03 
       6.881466629051e-04       1.946810663044e+03 
       8.663253209726e-04       2.388207731909e+03 
       1.090638961453e-03       2.916712583142e+03 
       1.373033103666e-03       3.541865224711e+03 
       1.728546265440e-03       4.269599322671e+03 
       2.176110819024e-03       5.099082194254e+03 
       2.739561208950e-03       6.019040938542e+03 
       3.448903223112e-03       7.003681707041e+03 
       4.341911910395e-03       8.008099366481e+03 
       5.466143239768e-03       8.964812839144e+03 
       6.881466629051e-03       9.781693535576e+03 
       8.663253209726e-03       1.034211165954e+04 
       1.090638961453e-02       1.050954722232e+04 
       1.373033103666e-02       1.014363024751e+04 
       1.728546264256e-02       9.143289147499e+03 
       2.176109145457e-02       7.536296438547e+03 
       2.739177616453e-02       5.597255062696e+03 
       3.429113905173e-02       3.884857825320e+03 
       4.093573382596e-02       2.975006962626e+03 
       4.569598613804e-02       2.643011798650e+03 
       4.947559058787e-02       2.492112269547e+03 
       5.278325617252e-02       2.401331130663e+03 
       5.583312394218e-02       2.327362884042e+03 
       5.873304646688e-02       2.250315078152e+03 
       6.154544479455e-02       2.160367852079e+03 
       6.431025397061e-02       2.053505066656e+03 
       6.705504115781e-02       1.929747694589e+03 
       6.980002633654e-02       1.792113107153e+03 
       7.256080618247e-02       1.645730214571e+03 
       7.534993784041e-02       1.496943176719e+03 
       7.817791195842e-02       1.352406884887e+03 
       8.105377781392e-02       1.218255440046e+03 
       8.398555994147e-02       1.099442898493e+03 
       8.698054435599e-02       9.993269030862e+02 
       9.004548017046e-02       9.195059749097e+02 
       9.318672454188e-02       8.598523716845e+02 
       9.641034857461e-02       8.186432210903e+02 
       9.972221565103e-02       7.927065742897e+02 
       1.031280398651e-01       7.775740110414e+02 
       1.066334298365e-01       7.677320644460e+02 
       1.102439216355e-01       7.571262344696e+02 
       1.139650035363e-01       7.400225829957e+02 
       1.178021346425e-01       7.121520319937e+02 
       1.217607589835e-01       6.718201355591e+02 
       1.258463163809e-01       6.205129723701e+02 
       1.300642511884e-01       5.626179010692e+02 
       1.344200198809e-01       5.042307056577e+02 
       1.389190983848e-01       4.514606621624e+02 
       1.435669899911e-01       4.088745918038e+02 
       1.483692346606e-01       3.785611297598e+02 
       1.533314205093e-01       3.598867368187e+02 
       1.584591982501e-01       3.497450400314e+02 
       1.637582993566e-01       3.432161812783e+02 
       1.692345587105e-01       3.348017552601e+02 
       1.748939424948e-01       3.202480449421e+02 
       1.807425821011e-01       2.983026605899e+02 
       1.867868148456e-01       2.712735110265e+02 
       1.930332323281e-01       2.437910005847e+02 
       1.994887373481e-01       2.204542195541e+02 
       2.061606104016e-01       2.037821758358e+02 
       2.130565869604e-01       1.933924723370e+02 
       2.201849469774e-01       1.864491412350e+02 
       2.275546183998e-01       1.791377611108e+02 
       2.351752969328e-01       1.687548051960e+02 
       2.430575849081e-01       1.552790115321e+02 
       2.512131529245e-01       1.411060622965e+02 
       2.596549290045e-01       1.290613188586e+02 
       2.683973214324e-01       1.203693946393e+02 
       2.774564833307e-01       1.140471602083e+02 
       2.868506295640e-01       1.079332510605e+02 
       2.966004199816e-01       1.005572306433e+02 
       3.067294276869e-01       9.229877499558e+01 
       3.172647174970e-01       8.468179207832e+01 
       3.282375688502e-01       7.863153560830e+01 
       3.396843903816e-01       7.363294984487e+01 
       3.516478921867e-01       6.856399352983e+01 
       3.641786095378e-01       6.310496459632e+01 
       3.773369135952e-01       5.792383550515e+01 
       3.911957089087e-01       5.350346443924e+01 
       4.058441187069e-01       4.947344582814e+01 
       4.213926225992e-01       4.538669063017e+01 
       4.379803836873e-01       4.144544689998e+01 
       4.557859705649e-01       3.789313958769e+01 
       4.750435156424e-01       3.449888899478e+01 
       4.960679063909e-01       3.117713699730e+01 
       5.192956393341e-01       2.806263719619e+01 
       5.453542097834e-01       2.504304169188e+01 
       5.751865665571e-01       2.211128603372e+01 
       6.102891138912e-01       1.924077548205e+01 
       6.532018813671e-01       1.639011578356e+01 
       7.086014263164e-01       1.350847754250e+01 
       7.858833830123e-01       1.054496632678e+01 
       9.047100954984e-01       7.505207131042e+00 
       1.097241942895e+00       4.684371404295e+00 
       1.375048173513e+00       2.679046802345e+00 
       1.730888387811e+00       1.504061032250e+00 
       2.179058123712e+00       8.383733712477e-01 
       2.743271644440e+00       4.643917129981e-01 
       3.453574384640e+00       2.557647750547e-01 
       4.347792554344e+00       1.401244910752e-01 
       5.473546531874e+00       7.639882231697e-02 
       6.890786821614e+00       4.146862933485e-02 
       8.674986636986e+00       2.241571369882e-02 
       1.092116112428e+01       1.206988456286e-02 
