# Matter power spectrum P(k) at redshift z=0
# for k=2.04271e-07 to 10.2484 h/Mpc,
# number of wavenumbers equal to 139
#    1:k (h/Mpc)              2:P (Mpc/h)^3        
       2.042710716228e-07       1.227111815811e+00 
       2.571620429604e-07       1.530679048116e+00 
       3.237478308317e-07       1.909343808089e+00 
       4.075743712473e-07       2.381683985084e+00 
       5.131057331593e-07       2.970873330895e+00 
       6.459618464115e-07       3.705818399794e+00 
       8.132177834969e-07       4.622576746973e+00 
       1.023780532967e-06       5.766125964847e+00 
       1.288863329053e-06       7.192570345567e+00 
       1.622582797274e-06       8.971893429146e+00 
       2.042710716228e-06       1.119139147097e+01 
       2.571620429604e-06       1.395995626557e+01 
       3.237478308317e-06       1.741341741314e+01 
       4.075743712473e-06       2.172120606787e+01 
       5.131057331593e-06       2.709466696523e+01 
       6.459618464115e-06       3.379742627901e+01 
       8.132177834969e-06       4.215832346886e+01 
       1.023780532967e-05       5.258754055743e+01 
       1.288863329053e-05       6.559671821340e+01 
       1.622582797274e-05       8.182404163848e+01 
       2.042710716228e-05       1.020655192842e+02 
       2.571620429604e-05       1.273139737570e+02 
       3.237478308317e-05       1.588076276983e+02 
       4.075743712473e-05       1.980906089498e+02 
       5.131057331593e-05       2.470882263047e+02 
       6.459618464115e-05       3.082004787078e+02 
       8.132177834969e-05       3.844179336639e+02 
       1.023780532967e-04       4.794647782354e+02 
       1.288863329053e-04       5.979743521119e+02 
       1.622582797274e-04       7.457025028315e+02 
       2.042710716228e-04       9.297830815501e+02 
       2.571620429604e-04       1.159026893647e+03 
       3.237478308317e-04       1.444259222643e+03 
       4.075743712473e-04       1.798680774231e+03 
       5.131057331593e-04       2.238223334827e+03 
       6.459618464115e-04       2.781856901580e+03 
       8.132177834969e-04       3.451781594422e+03 
       1.023780532967e-03       4.273358458697e+03 
       1.288863329053e-03       5.274458698645e+03 
       1.622582797274e-03       6.483845859392e+03 
       2.042710716228e-03       7.928304945269e+03 
       2.571620429604e-03       9.627946796350e+03 
       3.237478308317e-03       1.158938277204e+04 
       4.075743712473e-03       1.379673300473e+04 
       5.131057331593e-03       1.620030266149e+04 
       6.459618464115e-03       1.870412381584e+04 
       8.132177834969e-03       2.115405925698e+04 
       1.023780532967e-02       2.332885951658e+04 
       1.288863329053e-02       2.494032591272e+04 
       1.622582797266e-02       2.565593488145e+04 
       2.042710677922e-02       2.517103710314e+04 
       2.571597020234e-02       2.336374019873e+04 
       3.234768840248e-02       2.052012183074e+04 
       3.999186261603e-02       1.759234568046e+04 
       4.615539465970e-02       1.578293618470e+04 
       5.068420582767e-02       1.471878714394e+04 
       5.446421394275e-02       1.394259547371e+04 
       5.786088479769e-02       1.329376342111e+04 
       6.104071176967e-02       1.270480155808e+04 
       6.409329678987e-02       1.214318714561e+04 
       6.707301045828e-02       1.159307426232e+04 
       7.001588965605e-02       1.104808316296e+04 
       7.294751416408e-02       1.050780137044e+04 
       7.588708161128e-02       9.975685055313e+03 
       7.884969048576e-02       9.457527040850e+03 
       8.184770175123e-02       8.960177652233e+03 
       8.489159274130e-02       8.490419297398e+03 
       8.799051504833e-02       8.053985431437e+03 
       9.115267154093e-02       7.654755464995e+03 
       9.438557836510e-02       7.294165767200e+03 
       9.769625124220e-02       6.970878850916e+03 
       1.010913404134e-01       6.680749864584e+03 
       1.045772298079e-01       6.417129026584e+03 
       1.081601106977e-01       6.171529977913e+03 
       1.118460367864e-01       5.934663678756e+03 
       1.156409655685e-01       5.697769132238e+03 
       1.195507894192e-01       5.454067504745e+03 
       1.235813589709e-01       5.200052929184e+03 
       1.277385007301e-01       4.936267991066e+03 
       1.320280304880e-01       4.667256580654e+03 
       1.364557638130e-01       4.400568518225e+03 
       1.410275247356e-01       4.144966123551e+03 
       1.457491536270e-01       3.908249287208e+03 
       1.506265151966e-01       3.695261835499e+03 
       1.556655074922e-01       3.506617965765e+03 
       1.608720727560e-01       3.338529955098e+03 
       1.662522109728e-01       3.183881324540e+03 
       1.718119969348e-01       3.034384104111e+03 
       1.775576016391e-01       2.883268285330e+03 
       1.834953188312e-01       2.727576190175e+03 
       1.896315975100e-01       2.569052355260e+03 
       1.959730812268e-01       2.413087963762e+03 
       2.025266550417e-01       2.266094889071e+03 
       2.092995010617e-01       2.132520404273e+03 
       2.162991635828e-01       2.012927267251e+03 
       2.235336250036e-01       1.904045329406e+03 
       2.310113938975e-01       1.800746535759e+03 
       2.387416069286e-01       1.698897816146e+03 
       2.467341467142e-01       1.597454445516e+03 
       2.549997782889e-01       1.498496937203e+03 
       2.635503075735e-01       1.405253980173e+03 
       2.723987662251e-01       1.319598903919e+03 
       2.815596285503e-01       1.240848271198e+03 
       2.910490678774e-01       1.166623423257e+03 
       3.008852620792e-01       1.094897635593e+03 
       3.110887610168e-01       1.025416324614e+03 
       3.216829328590e-01       9.593172116109e+02 
       3.326945119825e-01       8.975459084592e+02 
       3.441542791611e-01       8.398016273853e+02 
       3.560979160733e-01       7.850079019211e+02 
       3.685670924055e-01       7.325201707846e+02 
       3.816108675699e-01       6.825325375224e+02 
       3.952875243967e-01       6.353499892735e+02 
       4.096670058489e-01       5.907321847958e+02 
       4.248342092215e-01       5.482026274999e+02 
       4.408935251221e-01       5.076112772037e+02 
       4.579752259461e-01       4.689863222894e+02 
       4.762446754990e-01       4.321386192682e+02 
       4.959159723441e-01       3.968114017003e+02 
       5.172728032893e-01       3.628833371824e+02 
       5.407014918421e-01       3.301781402407e+02 
       5.667456320092e-01       2.984596642669e+02 
       5.962010003393e-01       2.675036888583e+02 
       6.302903774054e-01       2.370107755194e+02 
       6.710084167365e-01       2.066089342905e+02 
       7.218568717706e-01       1.758011889229e+02 
       7.895359019381e-01       1.439357152574e+02 
       8.879212875856e-01       1.104112436277e+02 
       1.044822525220e+00       7.606459471909e+01 
       1.291636966712e+00       4.640220329383e+01 
       1.624280856507e+00       2.693339037872e+01 
       2.044819968178e+00       1.544771753601e+01 
       2.574275734518e+00       8.785224636871e+00 
       3.240821139115e+00       4.958197240852e+00 
       4.079952087111e+00       2.778986198290e+00 
       5.136355361367e+00       1.547794268160e+00 
       6.466288288430e+00       8.571244309019e-01 
       8.140574646292e+00       4.721605390815e-01 
       1.024837628882e+01       2.588429810664e-01 
