# Matter power spectrum P(k) at redshift z=0.5
# for k=2.09537e-07 to 10.5127 h/Mpc,
# number of wavenumbers equal to 139
#    1:k (h/Mpc)              2:P (Mpc/h)^3        
       2.095370047841e-07       6.950829587713e-01 
       2.637914600339e-07       8.670350232185e-01 
       3.320937724510e-07       1.081525193147e+00 
       4.180812892371e-07       1.349076694062e+00 
       5.263331592163e-07       1.682816023457e+00 
       6.626141892073e-07       2.099116957064e+00 
       8.341818410084e-07       2.618403870717e+00 
       1.050172717703e-06       3.266153790354e+00 
       1.322089121089e-06       4.074146330546e+00 
       1.664411591195e-06       5.082022844132e+00 
       2.095370047841e-06       6.339231271111e+00 
       2.637914600339e-06       7.907452098668e+00 
       3.320937724510e-06       9.863624435190e+00 
       4.180812892371e-06       1.230372062882e+01 
       5.263331592163e-06       1.534745455472e+01 
       6.626141892073e-06       1.914415444002e+01 
       8.341818410084e-06       2.388008809814e+01 
       1.050172717703e-05       2.978759945806e+01 
       1.322089121089e-05       3.715650364911e+01 
       1.664411591195e-05       4.634829772523e+01 
       2.095370047841e-05       5.781388035116e+01 
       2.637914600339e-05       7.211564211678e+01 
       3.320937724510e-05       8.995499509448e+01 
       4.180812892371e-05       1.122066623384e+02 
       5.263331592163e-05       1.399613505399e+02 
       6.626141892073e-05       1.745787832240e+02 
       8.341818410084e-05       2.177534677947e+02 
       1.050172717703e-04       2.715959762193e+02 
       1.322089121089e-04       3.387328572218e+02 
       1.664411591195e-04       4.224284057831e+02 
       2.095370047841e-04       5.267310816147e+02 
       2.637914600339e-04       6.566458592612e+02 
       3.320937724510e-04       8.183304282826e+02 
       4.180812892371e-04       1.019307137288e+03 
       5.263331592163e-04       1.268673849612e+03 
       6.626141892073e-04       1.577287272686e+03 
       8.341818410084e-04       1.957882996560e+03 
       1.050172717703e-03       2.425071544280e+03 
       1.322089121089e-03       2.995060469969e+03 
       1.664411591195e-03       3.684827501552e+03 
       2.095370047841e-03       4.510541104675e+03 
       2.637914600339e-03       5.485027658437e+03 
       3.320937724510e-03       6.613957798083e+03 
       4.180812892371e-03       7.890737246189e+03 
       5.263331592163e-03       9.263198432041e+03 
       6.626141892073e-03       1.072078993663e+04 
       8.341818410084e-03       1.215871596485e+04 
       1.050172717703e-02       1.345014152535e+04 
       1.322089121089e-02       1.442714887542e+04 
       1.664411591184e-02       1.489302079216e+04 
       2.095369999663e-02       1.466423039878e+04 
       2.637886668323e-02       1.366230380162e+04 
       3.317840512114e-02       1.204924998163e+04 
       4.096735073463e-02       1.038616280527e+04 
       4.718339944621e-02       9.365667414523e+03 
       5.176739924776e-02       8.763077441605e+03 
       5.560439907840e-02       8.323219346981e+03 
       5.905752145945e-02       7.955825351475e+03 
       6.229308582613e-02       7.622480466931e+03 
       6.540096347633e-02       7.304437191992e+03 
       6.843584728573e-02       6.992415363945e+03 
       7.143406768926e-02       6.682567215277e+03 
       7.442145818064e-02       6.374519750466e+03 
       7.741743506223e-02       6.070198654474e+03 
       8.043728774284e-02       5.772963248262e+03 
       8.349354688371e-02       5.486874227388e+03 
       8.659684349928e-02       5.216037650742e+03 
       8.975647084504e-02       4.964022477883e+03 
       9.298076447172e-02       4.733371798233e+03 
       9.627736652837e-02       4.525234146020e+03 
       9.965341380847e-02       4.339140228729e+03 
       1.031156740248e-01       4.172949215493e+03 
       1.066706459912e-01       4.022986973062e+03 
       1.103246340485e-01       3.884396298977e+03 
       1.140838037390e-01       3.751706272771e+03 
       1.179542236078e-01       3.619592389583e+03 
       1.219418966254e-01       3.483741134983e+03 
       1.260527838150e-01       3.341660630858e+03 
       1.302928220604e-01       3.193226912798e+03 
       1.346679376698e-01       3.040764049793e+03 
       1.391840569989e-01       2.888550123769e+03 
       1.438471152645e-01       2.741807166888e+03 
       1.486630645632e-01       2.605405177972e+03 
       1.536378820378e-01       2.482617477699e+03 
       1.587775790918e-01       2.374261807645e+03 
       1.640882125181e-01       2.278471839001e+03 
       1.695758983970e-01       2.191209046215e+03 
       1.752468296009e-01       2.107459510934e+03 
       1.811072977382e-01       2.022840289500e+03 
       1.871637203643e-01       1.935093523649e+03 
       1.934226742932e-01       1.844828886019e+03 
       1.998909358549e-01       1.755087067505e+03 
       2.065755289840e-01       1.669842554065e+03 
       2.134837820809e-01       1.592135270382e+03 
       2.206233946905e-01       1.522729908942e+03 
       2.280025151966e-01       1.459933509385e+03 
       2.356298309488e-01       1.400643723252e+03 
       2.435146725535e-01       1.342088481611e+03 
       2.516671344818e-01       1.283282044241e+03 
       2.600982147241e-01       1.225291520722e+03 
       2.688199769772e-01       1.170157330301e+03 
       2.778457398647e-01       1.119285818945e+03 
       2.871902990179e-01       1.072503395494e+03 
       2.968701896153e-01       1.028403839835e+03 
       3.069039993335e-01       9.855957468898e+02 
       3.173127448289e-01       9.437427727163e+02 
       3.281203291691e-01       9.035093290994e+02 
       3.393541035511e-01       8.655981147319e+02 
       3.510455648758e-01       8.299520769460e+02 
       3.632312324059e-01       7.959114841075e+02 
       3.759537634636e-01       7.629885150073e+02 
       3.892633925959e-01       7.312540180283e+02 
       4.032198150687e-01       7.009401599460e+02 
       4.178946909421e-01       6.719467175706e+02 
       4.333750320945e-01       6.439556375875e+02 
       4.497678718005e-01       6.168271554711e+02 
       4.672068412831e-01       5.905730221350e+02 
       4.858616574300e-01       5.650746925473e+02 
       5.059521899142e-01       5.401311052060e+02 
       5.277699832018e-01       5.156166290048e+02 
       5.517124028185e-01       4.913687560560e+02 
       5.783391583365e-01       4.671474669739e+02 
       6.084706497903e-01       4.426797883297e+02 
       6.433694464546e-01       4.175742327051e+02 
       6.850990488271e-01       3.912656265745e+02 
       7.372904997940e-01       3.628740488916e+02 
       8.069091562759e-01       3.309592107121e+02 
       9.084023685432e-01       2.932115613532e+02 
       1.070567510826e+00       2.471205887669e+02 
       1.324809243747e+00       1.956809764736e+02 
       1.666178601497e+00       1.487538799163e+02 
       2.097569410871e+00       1.093870095694e+02 
       2.640683362240e+00       7.751329924307e+01 
       3.324423389198e+00       5.291326507419e+01 
       4.185201084224e+00       3.492704839876e+01 
       5.268855998398e+00       2.241678783589e+01 
       6.633096707468e+00       1.406801158374e+01 
       8.350574003919e+00       8.675837922923e+00 
       1.051274981660e+01       5.279841643944e+00 
