# Matter power spectrum P(k) at redshift z=1.5
# for k=2.03696e-07 to 10.2195 h/Mpc,
# number of wavenumbers equal to 139
#    1:k (h/Mpc)              2:P (Mpc/h)^3        
       2.036957418350e-07       2.971854897786e-01 
       2.564377456703e-07       3.707042803660e-01 
       3.228359945676e-07       4.624104074083e-01 
       4.064264374030e-07       5.768031180708e-01 
       5.116605700716e-07       7.194946986589e-01 
       6.441424938762e-07       8.974858223382e-01 
       8.109273543572e-07       1.119509012433e+00 
       1.020897053519e-06       1.396457072979e+00 
       1.285233243501e-06       1.741917505123e+00 
       1.618012790326e-06       2.172839127746e+00 
       2.036957418350e-06       2.710363605910e+00 
       2.564377456703e-06       3.380862679739e+00 
       3.228359945676e-06       4.217231975285e+00 
       4.064264374030e-06       5.260504860505e+00 
       5.116605700716e-06       6.561865495290e+00 
       6.441424938762e-06       8.185159788440e+00 
       8.109273543572e-06       1.021002734649e+01 
       1.020897053519e-05       1.273580786157e+01 
       1.285233243501e-05       1.588641318090e+01 
       1.618012790326e-05       1.981640327567e+01 
       2.036957418350e-05       2.471856258230e+01 
       2.564377456703e-05       3.083334524625e+01 
       3.228359945676e-05       3.846064635798e+01 
       4.064264374030e-05       4.797446426044e+01 
       5.116605700716e-05       5.984114871111e+01 
       6.441424938762e-05       7.464208184911e+01 
       8.109273543572e-05       9.310180935540e+01 
       1.020897053519e-04       1.161228151458e+02 
       1.285233243501e-04       1.448282801979e+02 
       1.618012790326e-04       1.806142139458e+02 
       2.036957418350e-04       2.252121533553e+02 
       2.564377456703e-04       2.807629327675e+02 
       3.228359945676e-04       3.499004166438e+02 
       4.064264374030e-04       4.358409909353e+02 
       5.116605700716e-04       5.424695928098e+02 
       6.441424938762e-04       6.744066364758e+02 
       8.109273543572e-04       8.370348744864e+02 
       1.020897053519e-03       1.036462915510e+03 
       1.285233243501e-03       1.279388554120e+03 
       1.618012790326e-03       1.572757827151e+03 
       2.036957418350e-03       1.923034740024e+03 
       2.564377456703e-03       2.335024970156e+03 
       3.228359945676e-03       2.810250988756e+03 
       4.064264374030e-03       3.344759690238e+03 
       5.116605700716e-03       3.926411794953e+03 
       6.441424938762e-03       4.526036904663e+03 
       8.109273543572e-03       5.115797011817e+03 
       1.020897053519e-02       5.638429461516e+03 
       1.285233243501e-02       6.025215977025e+03 
       1.618012790318e-02       6.197601780746e+03 
       2.036957378781e-02       6.084469609276e+03 
       2.564353495013e-02       5.658281105282e+03 
       3.225607010330e-02       4.986586650718e+03 
       3.987012894952e-02       4.291684665976e+03 
       4.599837266822e-02       3.857398540349e+03 
       5.050402869038e-02       3.598198314899e+03 
       5.426657196615e-02       3.407291231723e+03 
       5.764843942584e-02       3.247101599930e+03 
       6.081489800598e-02       3.101884298889e+03 
       6.385495186303e-02       2.964096054837e+03 
       6.682263601737e-02       2.830082220132e+03 
       6.975377855729e-02       2.698366101189e+03 
       7.267381877077e-02       2.568815453616e+03 
       7.560185364607e-02       2.442145010744e+03 
       7.855290573158e-02       2.319559760183e+03 
       8.153927608886e-02       2.202463999508e+03 
       8.457139294363e-02       2.092212280603e+03 
       8.765836625073e-02       1.989898479569e+03 
       9.080836252228e-02       1.896187911068e+03 
       9.402886533994e-02       1.811201219231e+03 
       9.732686061322e-02       1.734458421275e+03 
       1.007089707816e-01       1.664891707942e+03 
       1.041815534438e-01       1.600933867782e+03 
       1.077507746145e-01       1.540685928007e+03 
       1.114226635179e-01       1.482158601192e+03 
       1.152031537252e-01       1.423564942727e+03 
       1.190981140779e-01       1.363620589859e+03 
       1.231133719391e-01       1.301787315001e+03 
       1.272547307167e-01       1.238389052717e+03 
       1.315279832036e-01       1.174547098185e+03 
       1.359389220170e-01       1.111923419371e+03 
       1.404933482428e-01       1.052318929894e+03 
       1.451970792817e-01       9.972217584246e+02 
       1.500559568175e-01       9.474238851685e+02 
       1.550758557890e-01       9.028120435325e+02 
       1.602626952144e-01       8.624013801533e+02 
       1.656224517010e-01       8.246239532677e+02 
       1.711611764626e-01       7.878140870449e+02 
       1.768850166552e-01       7.507511454248e+02 
       1.828002418434e-01       7.130607628399e+02 
       1.889132764083e-01       6.752914074472e+02 
       1.952307387268e-01       6.386068265635e+02 
       2.017594879826e-01       6.042201733390e+02 
       2.085066795301e-01       5.728336601441e+02 
       2.154798298281e-01       5.443504025570e+02 
       2.226868921113e-01       5.179921085176e+02 
       2.301363441771e-01       4.927553967996e+02 
       2.378372899733e-01       4.679555975535e+02 
       2.457995770783e-01       4.435400359595e+02 
       2.540339327270e-01       4.199820298961e+02 
       2.625521217710e-01       3.978489171605e+02 
       2.713671309420e-01       3.773680001348e+02 
       2.804933850831e-01       3.583003523483e+02 
       2.899470027242e-01       3.401814832563e+02 
       2.997461006694e-01       3.226970201680e+02 
       3.099111603322e-01       3.058644658827e+02 
       3.204654727323e-01       2.898883494437e+02 
       3.314356847998e-01       2.748753196983e+02 
       3.428524776234e-01       2.607128636443e+02 
       3.547514185708e-01       2.472051997675e+02 
       3.671740454237e-01       2.342655083749e+02 
       3.801692643658e-01       2.219295876918e+02 
       3.937951789313e-01       2.102159272007e+02 
       4.081215206134e-01       1.990534104586e+02 
       4.232329351019e-01       1.883584309864e+02 
       4.392335107434e-01       1.781036012670e+02 
       4.562531529214e-01       1.682713886462e+02 
       4.744567745180e-01       1.588078866405e+02 
       4.940579128407e-01       1.496581374691e+02 
       5.153395461855e-01       1.407812753197e+02 
       5.386870901459e-01       1.321202400726e+02 
       5.646429575493e-01       1.236067526739e+02 
       5.940013674476e-01       1.151622479768e+02 
       6.279830316521e-01       1.066812299193e+02 
       6.685798831659e-01       9.801929592774e+01 
       7.192902954278e-01       8.896458284366e+01 
       7.868109145010e-01       7.919466819432e+01 
       8.850140175820e-01       6.825854081059e+01 
       1.041676739656e+00       5.588329956500e+01 
       1.287976652607e+00       4.332942490189e+01 
       1.619709586843e+00       3.294024512901e+01 
       2.039065876976e+00       2.482190697494e+01 
       2.567031766033e+00       1.842446093777e+01 
       3.231701523109e+00       1.338940970657e+01 
       4.068471170775e+00       9.482702946639e+00 
       5.121901744041e+00       6.524341748653e+00 
       6.448092262286e+00       4.354694089218e+00 
       8.117667206586e+00       2.822181652915e+00 
       1.021953753086e+01       1.781400509062e+00 
