# Matter power spectrum P(k) at redshift z=2
# for k=2.00715e-07 to 10.0702 h/Mpc,
# number of wavenumbers equal to 139
#    1:k (h/Mpc)              2:P (Mpc/h)^3        
       2.007149005721e-07       2.630922792431e-01 
       2.526850888559e-07       3.277012538055e-01 
       3.181116795422e-07       4.081765987962e-01 
       4.004788771642e-07       5.084147033613e-01 
       5.041730353488e-07       6.332688133771e-01 
       6.347162461420e-07       7.887840119517e-01 
       7.990604115468e-07       9.824899048002e-01 
       1.005957457655e-06       1.223765181667e+00 
       1.266425406626e-06       1.524291704506e+00 
       1.594335126543e-06       1.898620107088e+00 
       2.007149005721e-06       2.364874289744e+00 
       2.526850888559e-06       2.945628914052e+00 
       3.181116795422e-06       3.669002381794e+00 
       4.004788771642e-06       4.570018198345e+00 
       5.041730353488e-06       5.692300618649e+00 
       6.347162461420e-06       7.090186621846e+00 
       7.990604115468e-06       8.831356387292e+00 
       1.005957457655e-05       1.100010943821e+01 
       1.266425406626e-05       1.370144475827e+01 
       1.594335126543e-05       1.706614167901e+01 
       2.007149005721e-05       2.125708624109e+01 
       2.526850888559e-05       2.647714656150e+01 
       3.181116795422e-05       3.297897324107e+01 
       4.004788771642e-05       4.107718876772e+01 
       5.041730353488e-05       5.116353543015e+01 
       6.347162461420e-05       6.372567426396e+01 
       7.990604115468e-05       7.937046520990e+01 
       1.005957457655e-04       9.885269815677e+01 
       1.266425406626e-04       1.231103587006e+02 
       1.594335126543e-04       1.533075388740e+02 
       2.007149005721e-04       1.908859215396e+02 
       2.526850888559e-04       2.376251538018e+02 
       3.181116795422e-04       2.957110050217e+02 
       4.004788771642e-04       3.678074483797e+02 
       5.041730353488e-04       4.571242155696e+02 
       6.347162461420e-04       5.674651977208e+02 
       7.990604115468e-04       7.032375758788e+02 
       1.005957457655e-03       8.694005363730e+02 
       1.266425406626e-03       1.071329783716e+03 
       1.594335126543e-03       1.314530293935e+03 
       2.007149005721e-03       1.604027069613e+03 
       2.526850888559e-03       1.943317056635e+03 
       3.181116795422e-03       2.332980506817e+03 
       4.004788771642e-03       2.768859657700e+03 
       5.041730353488e-03       3.239689841944e+03 
       6.347162461420e-03       3.722317540803e+03 
       7.990604115468e-03       4.186772129246e+03 
       1.005957457655e-02       4.583431420594e+03 
       1.266425406626e-02       4.848875907667e+03 
       1.594335126541e-02       4.908823660302e+03 
       2.007148994122e-02       4.695024091587e+03 
       2.526841304694e-02       4.184631364578e+03 
       3.179698714569e-02       3.459573417522e+03 
       3.954690743535e-02       2.757713503742e+03 
       4.620164273665e-02       2.362022785572e+03 
       5.100778903587e-02       2.173849229741e+03 
       5.495166648600e-02       2.059029200262e+03 
       5.846383035328e-02       1.973143394936e+03 
       6.173457804198e-02       1.898133881261e+03 
       6.486394970905e-02       1.825131624786e+03 
       6.791163961187e-02       1.749545511338e+03 
       7.091671597184e-02       1.669295742506e+03 
       7.390663327412e-02       1.584026890984e+03 
       7.690182584215e-02       1.494652169579e+03 
       7.991825193434e-02       1.402998610709e+03 
       8.296889727069e-02       1.311471642219e+03 
       8.606471097230e-02       1.222720403653e+03 
       8.921521335326e-02       1.139315025258e+03 
       9.242890460659e-02       1.063459673756e+03 
       9.571354763847e-02       9.967637432081e+02 
       9.907636850012e-02       9.400840866156e+02 
       1.025242011786e-01       8.934390701163e+02 
       1.060635937822e-01       8.559886785037e+02 
       1.097008872909e-01       8.260789121050e+02 
       1.134422744054e-01       8.013616861753e+02 
       1.172938437096e-01       7.790164216476e+02 
       1.212616128662e-01       7.560972738156e+02 
       1.253515535735e-01       7.299982854135e+02 
       1.295696103608e-01       6.989674575623e+02 
       1.339217148609e-01       6.625338351355e+02 
       1.384137969077e-01       6.216843752351e+02 
       1.430517936196e-01       5.786747473749e+02 
       1.478416574994e-01       5.364824522311e+02 
       1.527893645095e-01       4.980514777668e+02 
       1.579009230255e-01       4.655560829403e+02 
       1.631823845431e-01       4.398809696625e+02 
       1.686398569955e-01       4.204194428665e+02 
       1.742795215207e-01       4.052173804442e+02 
       1.801076535141e-01       3.914749816720e+02 
       1.861306487943e-01       3.763818509188e+02 
       1.923550557151e-01       3.581011386647e+02 
       1.987876140654e-01       3.364960592685e+02 
       2.054353016336e-01       3.131577346953e+02 
       2.123053893666e-01       2.906227101015e+02 
       2.194055061437e-01       2.711652476296e+02 
       2.267437143323e-01       2.557884218081e+02 
       2.343285974951e-01       2.438620608864e+02 
       2.421693619128e-01       2.335263833113e+02 
       2.502759539884e-01       2.227090272287e+02 
       2.586591961399e-01       2.102950644271e+02 
       2.673309445110e-01       1.967214231736e+02 
       2.763042727877e-01       1.835123155360e+02 
       2.855936876701e-01       1.720874421819e+02 
       2.952153832289e-01       1.627656920329e+02 
       3.051875436015e-01       1.546703428106e+02 
       3.155307064820e-01       1.465505294742e+02 
       3.262682039112e-01       1.378512354020e+02 
       3.374267024429e-01       1.290758523545e+02 
       3.490368724932e-01       1.210991211289e+02 
       3.611342275836e-01       1.142009135879e+02 
       3.737601898047e-01       1.078657096222e+02 
       3.869634605748e-01       1.014956349906e+02 
       4.008018095251e-01       9.511690541758e+01 
       4.153444454491e-01       8.917086060112e+01 
       4.306752123634e-01       8.377444423432e+01 
       4.468969791765e-01       7.860366120708e+01 
       4.641377958559e-01       7.349444913694e+01 
       4.825597321498e-01       6.863363152317e+01 
       5.023719108596e-01       6.406048042768e+01 
       5.238503226926e-01       5.959963009620e+01 
       5.473690344574e-01       5.526320322834e+01 
       5.734514072820e-01       5.107608371190e+01 
       6.028583170257e-01       4.694141103094e+01 
       6.367490194319e-01       4.285184047600e+01 
       6.769947844843e-01       3.873266366789e+01 
       7.268389686211e-01       3.451214283477e+01 
       7.923988744260e-01       3.007187927203e+01 
       8.862180870593e-01       2.526454726118e+01 
       1.034042103148e+00       2.003030473366e+01 
       1.270254166394e+00       1.489683760383e+01 
       1.596062883720e+00       1.088701913548e+01 
       2.009261251818e+00       8.019144766151e+00 
       2.529509795709e+00       5.927095473091e+00 
       3.184464161054e+00       4.363552093041e+00 
       4.009002855298e+00       3.177078598624e+00 
       5.047035570491e+00       2.273491213742e+00 
       6.353841333920e+00       1.591146591787e+00 
       7.999012317780e+00       1.085583271752e+00 
       1.007015987611e+01       7.208429575022e-01 
