# Matter power spectrum P(k) at redshift z=2
# for k=2.03613e-07 to 10.2154 h/Mpc,
# number of wavenumbers equal to 139
#    1:k (h/Mpc)              2:P (Mpc/h)^3        
       2.036133692778e-07       2.711359718497e-01 
       2.563340447649e-07       3.382105411590e-01 
       3.227054428625e-07       4.218782528312e-01 
       4.062620825439e-07       5.262439766885e-01 
       5.114536595629e-07       6.564280592723e-01 
       6.438820089788e-07       8.188175364500e-01 
       8.105994233005e-07       1.021379490319e+00 
       1.020484212779e-06       1.274051926615e+00 
       1.284713507802e-06       1.589231346463e+00 
       1.617358481847e-06       1.982380936957e+00 
       2.036133692778e-06       2.472789211334e+00 
       2.563340447649e-06       3.084516321497e+00 
       3.227054428625e-06       3.847574462705e+00 
       4.062620825439e-06       4.799400271129e+00 
       5.114536595629e-06       5.986691425815e+00 
       6.438820089788e-06       7.467697517957e+00 
       8.105994233005e-06       9.315077494388e+00 
       1.020484212779e-05       1.161946366192e+01 
       1.284713507802e-05       1.449390678153e+01 
       1.617358481847e-05       1.807941958297e+01 
       2.036133692778e-05       2.255188929317e+01 
       2.563340447649e-05       2.813069550172e+01 
       3.227054428625e-05       3.508945068167e+01 
       4.062620825439e-05       4.376937939276e+01 
       5.114536595629e-05       5.459597113117e+01 
       6.438820089788e-05       6.809968134974e+01 
       8.105994233005e-05       8.494161294579e+01 
       1.020484212779e-04       1.059452740885e+02 
       1.284713507802e-04       1.321356495485e+02 
       1.617358481847e-04       1.647868777095e+02 
       2.036133692778e-04       2.054796679736e+02 
       2.563340447649e-04       2.561689874958e+02 
       3.227054428625e-04       3.192610934520e+02 
       4.062620825439e-04       3.976961118347e+02 
       5.114536595629e-04       4.950275020349e+02 
       6.438820089788e-04       6.154830616728e+02 
       8.105994233005e-04       7.639858564178e+02 
       1.020484212779e-03       9.461115154249e+02 
       1.284713507802e-03       1.167954831813e+03 
       1.617358481847e-03       1.435833408587e+03 
       2.036133692778e-03       1.755649919239e+03 
       2.563340447649e-03       2.131786560395e+03 
       3.227054428625e-03       2.565618794036e+03 
       4.062620825439e-03       3.053525744389e+03 
       5.114536595629e-03       3.584413511529e+03 
       6.438820089788e-03       4.137019274995e+03 
       8.105994233005e-03       4.677394099171e+03 
       1.020484212779e-02       5.157108560142e+03 
       1.284713507802e-02       5.513509237211e+03 
       1.617358481838e-02       5.674838129502e+03 
       2.036133653065e-02       5.575825946915e+03 
       2.563316423524e-02       5.190449556904e+03 
       3.224296670747e-02       4.578934762756e+03 
       3.985295399158e-02       3.943235759039e+03 
       4.597665943112e-02       3.544211390141e+03 
       5.047929912629e-02       3.305204832861e+03 
       5.423953743262e-02       3.128744145257e+03 
       5.761943541602e-02       2.980433094713e+03 
       6.078410627129e-02       2.845832980903e+03 
       6.382247851487e-02       2.718016664478e+03 
       6.678854436709e-02       2.593624704550e+03 
       6.971810510468e-02       2.471300384563e+03 
       7.263658186537e-02       2.350926499984e+03 
       7.556305856421e-02       2.233169121581e+03 
       7.851254783501e-02       2.119149686411e+03 
       8.149734288186e-02       2.010176271255e+03 
       8.452786546094e-02       1.907512695786e+03 
       8.761322001988e-02       1.812182307541e+03 
       9.076156824491e-02       1.724810790756e+03 
       9.398038938142e-02       1.645516778795e+03 
       9.727666535823e-02       1.573858089631e+03 
       1.006570148939e-01       1.508842142561e+03 
       1.041277920560e-01       1.449007279021e+03 
       1.076951594667e-01       1.392578894996e+03 
       1.113651430577e-01       1.337695908319e+03 
       1.151436731794e-01       1.282686283319e+03 
       1.190366155021e-01       1.226350731280e+03 
       1.230497942515e-01       1.168193507352e+03 
       1.271890097194e-01       1.108532766298e+03 
       1.314600515952e-01       1.048439610890e+03 
       1.358687093978e-01       9.894948077927e+02 
       1.404207811152e-01       9.334077995429e+02 
       1.451220810454e-01       8.815878971366e+02 
       1.499784477617e-01       8.347802852337e+02 
       1.549957530799e-01       7.928675883043e+02 
       1.601799128784e-01       7.549027969365e+02 
       1.655369006029e-01       7.193858380073e+02 
       1.710727642760e-01       6.847289780931e+02 
       1.767936478250e-01       6.497771440625e+02 
       1.827058175368e-01       6.141911878594e+02 
       1.888156944524e-01       5.785174459666e+02 
       1.951298935291e-01       5.438873075296e+02 
       2.016552704311e-01       5.114696944336e+02 
       2.083989768688e-01       4.819319921427e+02 
       2.153685255040e-01       4.551666022530e+02 
       2.225718655864e-01       4.304110082733e+02 
       2.300174707022e-01       4.066945845752e+02 
       2.377144403142e-01       3.833662606474e+02 
       2.456726171901e-01       3.603932152538e+02 
       2.539027233667e-01       3.382494068955e+02 
       2.624165180387e-01       3.174896560920e+02 
       2.712269817408e-01       2.983283066426e+02 
       2.803485324823e-01       2.805236754869e+02 
       2.897972812118e-01       2.636208565002e+02 
       2.995913362717e-01       2.473207783968e+02 
       3.097511695777e-01       2.316522034198e+02 
       3.203000614273e-01       2.168219564877e+02 
       3.312646465778e-01       2.029334510636e+02 
       3.426755922167e-01       1.898730582244e+02 
       3.545684497399e-01       1.774500774630e+02 
       3.669847384597e-01       1.655859224601e+02 
       3.799733430519e-01       1.543219835910e+02 
       3.935923418133e-01       1.436785091994e+02 
       4.079114363747e-01       1.335865119749e+02 
       4.230152367613e-01       1.239679240941e+02 
       4.390077882823e-01       1.148021350594e+02 
       4.560189437823e-01       1.060770833407e+02 
       4.742135511674e-01       9.774489700860e+01 
       4.938050662085e-01       8.975950377720e+01 
       5.150763631994e-01       8.209086280040e+01 
       5.384127226392e-01       7.469523237354e+01 
       5.643563783259e-01       6.752286347040e+01 
       5.937013069390e-01       6.052119091891e+01 
       6.276678851371e-01       5.362314057477e+01 
       6.682475743736e-01       4.674424142259e+01 
       7.189380807212e-01       3.977194497848e+01 
       7.864351128350e-01       3.255836931346e+01 
       8.846094384729e-01       2.496734734420e+01 
       1.041232233832e+00       1.719178488364e+01 
       1.287453268378e+00       1.048468146348e+01 
       1.619055016293e+00       6.086341246654e+00 
       2.038241913990e+00       3.491336502016e+00 
       2.565994458454e+00       1.985797167475e+00 
       3.230395630238e+00       1.120866547138e+00 
       4.066827149055e+00       6.282896786211e-01 
       5.119832043320e+00       3.499661897239e-01 
       6.445486663453e+00       1.938177734128e-01 
       8.114386952002e+00       1.067763284499e-01 
       1.021540793501e+01       5.854068757366e-02 
