# Matter power spectrum P(k) at redshift z=1.5
# for k=2.37264e-07 to 11.9044 h/Mpc,
# number of wavenumbers equal to 139
#    1:k (h/Mpc)              2:P (Mpc/h)^3        
       2.372638593716e-07       2.552642885438e-01 
       2.986975018632e-07       3.163297667275e-01 
       3.760378755351e-07       3.920036048385e-01 
       4.734036373082e-07       4.857804806617e-01 
       5.959798690431e-07       6.019910847411e-01 
       7.502942020561e-07       7.460021144996e-01 
       9.445644372902e-07       9.244641126948e-01 
       1.189136173182e-06       1.145618594148e+00 
       1.497033746502e-06       1.419678644174e+00 
       1.884653825785e-06       1.759300566076e+00 
       2.372638593716e-06       2.180168353706e+00 
       2.986975018632e-06       2.701717984569e+00 
       3.760378755351e-06       3.348034972876e+00 
       4.734036373082e-06       4.148966629292e+00 
       5.959798690431e-06       5.141500375177e+00 
       7.502942020561e-06       6.371471736918e+00 
       9.445644372902e-06       7.895680846973e+00 
       1.189136173182e-05       9.784515079135e+00 
       1.497033746502e-05       1.212519873852e+01 
       1.884653825785e-05       1.502581945893e+01 
       2.372638593716e-05       1.862031647390e+01 
       2.986975018632e-05       2.307465952895e+01 
       3.760378755351e-05       2.859450074263e+01 
       4.734036373082e-05       3.543464673823e+01 
       5.959798690431e-05       4.391077665081e+01 
       7.502942020561e-05       5.441392406352e+01 
       9.445644372902e-05       6.742834627700e+01 
       1.189136173182e-04       8.355351789288e+01 
       1.497033746502e-04       1.035310925734e+02 
       1.884653825785e-04       1.282777462994e+02 
       2.372638593716e-04       1.589247839052e+02 
       2.986975018632e-04       1.968651414442e+02 
       3.760378755351e-04       2.438077547360e+02 
       4.734036373082e-04       3.018379137412e+02 
       5.959798690431e-04       3.734799246824e+02 
       7.502942020561e-04       4.617552392145e+02 
       9.445644372902e-04       5.702260629664e+02 
       1.189136173182e-03       7.030121068455e+02 
       1.497033746502e-03       8.647608510479e+02 
       1.884653825785e-03       1.060519533865e+03 
       2.372638593716e-03       1.295406724463e+03 
       2.986975018632e-03       1.574012552496e+03 
       3.760378755351e-03       1.899493515399e+03 
       4.734036373082e-03       2.272239895773e+03 
       5.959798690431e-03       2.687991100327e+03 
       7.502942020561e-03       3.135384745080e+03 
       9.445644372902e-03       3.593059507708e+03 
       1.189136173182e-02       4.026475952476e+03 
       1.497033746502e-02       4.385527581774e+03 
       1.884653825764e-02       4.605640452892e+03 
       2.372638511372e-02       4.618498833549e+03 
       2.986932111338e-02       4.381378644664e+03 
       3.756017446398e-02       3.927752649295e+03 
       4.624995369637e-02       3.436156291791e+03 
       5.304835107125e-02       3.134640608778e+03 
       5.810086709017e-02       2.956352196904e+03 
       6.235410848585e-02       2.827421496760e+03 
       6.619345049984e-02       2.720535019804e+03 
       6.979735301835e-02       2.623386657007e+03 
       7.326303784429e-02       2.529544311821e+03 
       7.665001985159e-02       2.435512255025e+03 
       7.999800935956e-02       2.339579560509e+03 
       8.333534405378e-02       2.241278321646e+03 
       8.668338552161e-02       2.141065500729e+03 
       9.005899745613e-02       2.040082190122e+03 
       9.347603085494e-02       1.939931617080e+03 
       9.694625907643e-02       1.842454986627e+03 
       1.004799907283e-01       1.749505816404e+03 
       1.040864849587e-01       1.662732063343e+03 
       1.077742406907e-01       1.583380838794e+03 
       1.115512026535e-01       1.512140024090e+03 
       1.154249108334e-01       1.449030161227e+03 
       1.194026104214e-01       1.393359564254e+03 
       1.234913335353e-01       1.343755369603e+03 
       1.276979603703e-01       1.298284668543e+03 
       1.320292651185e-01       1.254676429163e+03 
       1.364919504870e-01       1.210640401477e+03 
       1.410926736544e-01       1.164252817381e+03 
       1.458380658405e-01       1.114341542247e+03 
       1.507347472269e-01       1.060772630162e+03 
       1.557893386728e-01       1.004536064631e+03 
       1.610084714774e-01       9.475654036748e+02 
       1.663987963194e-01       8.923024637714e+02 
       1.719669924217e-01       8.411023569583e+02 
       1.777197779440e-01       7.956324044953e+02 
       1.836639225713e-01       7.564248548429e+02 
       1.898062632510e-01       7.227090120305e+02 
       1.961537240144e-01       6.925953371650e+02 
       2.027133408114e-01       6.636168953635e+02 
       2.094922922848e-01       6.335273504816e+02 
       2.164979374136e-01       6.011089937653e+02 
       2.237378609735e-01       5.666416494285e+02 
       2.312199278050e-01       5.317551903586e+02 
       2.389523469467e-01       4.986699863817e+02 
       2.469437468105e-01       4.691647925487e+02 
       2.552032627467e-01       4.437687044355e+02 
       2.637406386027e-01       4.215666622987e+02 
       2.725663442302e-01       4.007310051610e+02 
       2.816917113823e-01       3.795476777199e+02 
       2.911290910897e-01       3.573832921893e+02 
       3.008920364729e-01       3.349627571540e+02 
       3.109955160895e-01       3.137306136353e+02 
       3.214561644325e-01       2.947505751961e+02 
       3.322925781997e-01       2.779640050906e+02 
       3.435256696343e-01       2.623515162809e+02 
       3.551790918342e-01       2.468471990197e+02 
       3.672797558264e-01       2.312207987227e+02 
       3.798584659317e-01       2.161182379325e+02 
       3.929507093388e-01       2.022513041963e+02 
       4.065976490940e-01       1.896230791887e+02 
       4.208473888233e-01       1.776219860095e+02 
       4.357566054695e-01       1.658079166887e+02 
       4.513926880215e-01       1.543704571626e+02 
       4.678365836807e-01       1.436852709376e+02 
       4.851866517170e-01       1.336908704086e+02 
       5.035639829731e-01       1.240451131749e+02 
       5.231199017702e-01       1.147002459674e+02 
       5.440468049737e-01       1.058307408945e+02 
       5.665942605125e-01       9.736376541665e+01 
       5.910936864512e-01       8.914141240808e+01 
       6.179975969849e-01       8.120392113582e+01 
       6.479447436909e-01       7.350069171262e+01 
       6.818738203440e-01       6.593792746482e+01 
       7.212340749676e-01       5.847335958096e+01 
       7.684034877629e-01       5.099353422677e+01 
       8.275865735082e-01       4.337617542730e+01 
       9.068911245982e-01       3.545206454602e+01 
       1.023183346985e+00       2.707792936006e+01 
       1.209665520624e+00       1.851520601686e+01 
       1.499893359626e+00       1.125265367516e+01 
       1.886744540533e+00       6.542279839159e+00 
       2.375249724610e+00       3.757900517557e+00 
       2.990262183874e+00       2.138676671213e+00 
       3.764517051188e+00       1.207063353266e+00 
       4.739246178873e+00       6.761517022354e-01 
       5.966357447331e+00       3.761751391784e-01 
       7.511199006293e+00       2.079861221952e-01 
       9.456039302065e+00       1.143434791617e-01 
       1.190444817229e+01       6.253563262680e-02 
