# Matter power spectrum P(k) at redshift z=0
# for k=2.05415e-07 to 10.3057 h/Mpc,
# number of wavenumbers equal to 139
#    1:k (h/Mpc)              2:P (Mpc/h)^3        
       2.054150991474e-07       1.302111154269e+00 
       2.586022882829e-07       1.624231986378e+00 
       3.255609922675e-07       2.026040200839e+00 
       4.098570062545e-07       2.527249141420e+00 
       5.159794003757e-07       3.152448906876e+00 
       6.495795790952e-07       3.932312779135e+00 
       8.177722391056e-07       4.905102100365e+00 
       1.029514252870e-06       6.118543429993e+00 
       1.296081654742e-06       7.632170075897e+00 
       1.631670130915e-06       9.520242874377e+00 
       2.054150991474e-06       1.187539350652e+01 
       2.586022882829e-06       1.481316908349e+01 
       3.255609922675e-06       1.847770092888e+01 
       4.098570062545e-06       2.304877560610e+01 
       5.159794003757e-06       2.875065497707e+01 
       6.495795790952e-06       3.586307774612e+01 
       8.177722391056e-06       4.473498171130e+01 
       1.029514252870e-05       5.580161891698e+01 
       1.296081654742e-05       6.960590132558e+01 
       1.631670130915e-05       8.682502018206e+01 
       2.054150991474e-05       1.083036369652e+02 
       2.586022882829e-05       1.350952583702e+02 
       3.255609922675e-05       1.685137937130e+02 
       4.098570062545e-05       2.101977620499e+02 
       5.159794003757e-05       2.621901765456e+02 
       6.495795790952e-05       3.270377842577e+02 
       8.177722391056e-05       4.079140573447e+02 
       1.029514252870e-04       5.087710468295e+02 
       1.296081654742e-04       6.345257607097e+02 
       1.631670130915e-04       7.912867855622e+02 
       2.054150991474e-04       9.866258325251e+02 
       2.586022882829e-04       1.229895780130e+03 
       3.255609922675e-04       1.532590337843e+03 
       4.098570062545e-04       1.908729727270e+03 
       5.159794003757e-04       2.375242573429e+03 
       6.495795790952e-04       2.952298874306e+03 
       8.177722391056e-04       3.663524167737e+03 
       1.029514252870e-03       4.535941897092e+03 
       1.296081654742e-03       5.599307647992e+03 
       1.631670130915e-03       6.884427195018e+03 
       2.054150991474e-03       8.420145368189e+03 
       2.586022882829e-03       1.022838684095e+04 
       3.255609922675e-03       1.231691391371e+04 
       4.098570062545e-03       1.466973276110e+04 
       5.159794003757e-03       1.723483285748e+04 
       6.495795790952e-03       1.980654416015e+04 
       8.177722391056e-03       2.238453139589e+04 
       1.029514252870e-02       2.465688021245e+04 
       1.296081654742e-02       2.631016829931e+04 
       1.631670130908e-02       2.698281154517e+04 
       2.054150956550e-02       2.634603698087e+04 
       2.586000994268e-02       2.427822008484e+04 
       3.253023783491e-02       2.111847983834e+04 
       4.024087754727e-02       1.794062320375e+04 
       4.648935068208e-02       1.604019075207e+04 
       5.107283306434e-02       1.496883839215e+04 
       5.489319142512e-02       1.421212558218e+04 
       5.832360007805e-02       1.359139720736e+04 
       6.153362638411e-02       1.303144194610e+04 
       6.461434903823e-02       1.249557529977e+04 
       6.762095751278e-02       1.196555672695e+04 
       7.058999275443e-02       1.143381070235e+04 
       7.354737048754e-02       1.089971101198e+04 
       7.651252688694e-02       1.036735138994e+04 
       7.950073897330e-02       9.843873975396e+03 
       8.252450746537e-02       9.338012411358e+03 
       8.559442345306e-02       8.858753517427e+03 
       8.871973434631e-02       8.414126826504e+03 
       9.190872617838e-02       8.010176040589e+03 
       9.516898918753e-02       7.650168457656e+03 
       9.850760660754e-02       7.334087445512e+03 
       1.019312913865e-01       7.058443756841e+03 
       1.054464866421e-01       6.816442840655e+03 
       1.090594402624e-01       6.598554517892e+03 
       1.127762606996e-01       6.393533695381e+03 
       1.166029588558e-01       6.189893538501e+03 
       1.205454795689e-01       5.977718189748e+03 
       1.246097252874e-01       5.750525477878e+03 
       1.288015739094e-01       5.506717517387e+03 
       1.331268923612e-01       5.250105980095e+03 
       1.375915472129e-01       4.989162815675e+03 
       1.422014134592e-01       4.735024593803e+03 
       1.469623824705e-01       4.498717143901e+03 
       1.518803700538e-01       4.288351223602e+03 
       1.569613255117e-01       4.107042145898e+03 
       1.622112425622e-01       3.952087706797e+03 
       1.676361729631e-01       3.815665343290e+03 
       1.732422436723e-01       3.687044963829e+03 
       1.790356783679e-01       3.555939599865e+03 
       1.850228241469e-01       3.416038312903e+03 
       1.912101842286e-01       3.267266405630e+03 
       1.976044574979e-01       3.115503598306e+03 
       2.042125857619e-01       2.969644922872e+03 
       2.110418096505e-01       2.837373565566e+03 
       2.180997341891e-01       2.721729191762e+03 
       2.253944052214e-01       2.620068742576e+03 
       2.329343980748e-01       2.525838593910e+03 
       2.407289201671e-01       2.432292633627e+03 
       2.487879296651e-01       2.336181214664e+03 
       2.571222728694e-01       2.239131894881e+03 
       2.657438437408e-01       2.145771193343e+03 
       2.746657699735e-01       2.060026834275e+03 
       2.839026313227e-01       1.982404648993e+03 
       2.934707176205e-01       1.910128896024e+03 
       3.033883362215e-01       1.839760842930e+03 
       3.136761817099e-01       1.769973265529e+03 
       3.243577849061e-01       1.702061852581e+03 
       3.354600639808e-01       1.637965045401e+03 
       3.470140085282e-01       1.578061955694e+03 
       3.590555388077e-01       1.521026451016e+03 
       3.716265986742e-01       1.465544240990e+03 
       3.847765645421e-01       1.411608481819e+03 
       3.985640881747e-01       1.359898802754e+03 
       4.130595449387e-01       1.310445004317e+03 
       4.283483427833e-01       1.262572224537e+03 
       4.445354803296e-01       1.215885337962e+03 
       4.617519602599e-01       1.170471492098e+03 
       4.801640316209e-01       1.126202676203e+03 
       4.999868761161e-01       1.082659101344e+03 
       5.215055176027e-01       1.039582582201e+03 
       5.451079415872e-01       9.967009725733e+02 
       5.713398121659e-01       9.535397906853e+02 
       6.009994583503e-01       9.095605541271e+02 
       6.353126801820e-01       8.639841962834e+02 
       6.762772390170e-01       8.156597959143e+02 
       7.273964688911e-01       7.627632108448e+02 
       7.953653525267e-01       7.022271266585e+02 
       8.940383331726e-01       6.288620263399e+02 
       1.051250800576e+00       5.359481958202e+02 
       1.298936946479e+00       4.266761644971e+02 
       1.633369446224e+00       3.224104714859e+02 
       2.056259568766e+00       2.336960124615e+02 
       2.588677329248e+00       1.628321899482e+02 
       3.258951672686e+00       1.096141357561e+02 
       4.102777076554e+00       7.173432903502e+01 
       5.165090320600e+00       4.590900206108e+01 
       6.502463458816e+00       2.888079793979e+01 
       8.186116487566e+00       1.793405951837e+01 
       1.030571007010e+01       1.102881793979e+01 
