# Matter power spectrum P(k) at redshift z=1.5
# for k=2.40583e-07 to 12.0712 h/Mpc,
# number of wavenumbers equal to 139
#    1:k (h/Mpc)              2:P (Mpc/h)^3        
       2.405830174306e-07       1.970347588904e-01 
       3.028760742895e-07       2.450828074649e-01 
       3.812983865475e-07       3.048476463405e-01 
       4.800262283008e-07       3.791864815493e-01 
       6.043172171356e-07       4.716532649719e-01 
       7.607903014367e-07       5.866685996901e-01 
       9.577782435252e-07       7.297310777236e-01 
       1.205771369637e-06       9.076801534646e-01 
       1.517976218050e-06       1.129023119697e+00 
       1.911018835403e-06       1.404341818749e+00 
       2.405830174306e-06       1.746798530314e+00 
       3.028760742895e-06       2.172765220270e+00 
       3.812983865475e-06       2.702606232304e+00 
       4.800262283008e-06       3.361651831627e+00 
       6.043172171356e-06       4.181409134910e+00 
       7.607903014367e-06       5.201068295828e+00 
       9.577782435252e-06       6.469375906946e+00 
       1.205771369637e-05       8.046965100107e+00 
       1.517976218050e-05       1.000925356542e+01 
       1.911018835403e-05       1.245004770872e+01 
       2.405830174306e-05       1.548602459531e+01 
       3.028760742895e-05       1.926230465530e+01 
       3.812983865475e-05       2.395937901684e+01 
       4.800262283008e-05       2.980171763204e+01 
       6.043172171356e-05       3.706845984810e+01 
       7.607903014367e-05       4.610667907718e+01 
       9.577782435252e-05       5.734781757918e+01 
       1.205771369637e-04       7.132800235453e+01 
       1.517976218050e-04       8.871306755374e+01 
       1.911018835403e-04       1.103291967914e+02 
       2.405830174306e-04       1.372001065463e+02 
       3.028760742895e-04       1.705915188966e+02 
       3.812983865475e-04       2.120631462338e+02 
       4.800262283008e-04       2.635272851317e+02 
       6.043172171356e-04       3.273111422152e+02 
       7.607903014367e-04       4.062172155380e+02 
       9.577782435252e-04       5.035731255671e+02 
       1.205771369637e-03       6.232598866166e+02 
       1.517976218050e-03       7.697008805122e+02 
       1.911018835403e-03       9.477653758436e+02 
       2.405830174306e-03       1.162494437795e+03 
       3.028760742895e-03       1.418578973223e+03 
       3.812983865475e-03       1.719550391458e+03 
       4.800262283008e-03       2.066561133513e+03 
       6.043172171356e-03       2.456626912744e+03 
       7.607903014367e-03       2.880289755976e+03 
       9.577782435252e-03       3.318784302505e+03 
       1.205771369637e-02       3.740835276976e+03 
       1.517976218050e-02       4.100056385570e+03 
       1.911018835377e-02       4.335466050656e+03 
       2.405830079653e-02       4.380934454847e+03 
       3.028713004095e-02       4.192288784833e+03 
       3.808258869515e-02       3.795376734533e+03 
       4.685097696063e-02       3.353430236743e+03 
       5.367124493927e-02       3.078806204624e+03 
       5.875252124210e-02       2.913781025198e+03 
       6.303727790773e-02       2.793056996713e+03 
       6.690860521518e-02       2.692144186407e+03 
       7.054450294344e-02       2.599888786008e+03 
       7.404218332838e-02       2.510418722936e+03 
       7.746126204215e-02       2.420528827438e+03 
       8.084157090146e-02       2.328650206410e+03 
       8.421156531170e-02       2.234363421996e+03 
       8.759271505869e-02       2.138111084493e+03 
       9.100198235448e-02       2.040978621882e+03 
       9.445330841316e-02       1.944489662060e+03 
       9.795855012688e-02       1.850397803661e+03 
       1.015280944220e-01       1.760474263627e+03 
       1.051712747724e-01       1.676301350271e+03 
       1.088966614159e-01       1.599084834906e+03 
       1.127122681605e-01       1.529500122096e+03 
       1.166257024420e-01       1.467585561114e+03 
       1.206442757417e-01       1.412696331402e+03 
       1.247750856702e-01       1.363532211798e+03 
       1.290250773949e-01       1.318253184542e+03 
       1.334010897684e-01       1.274692974060e+03 
       1.379098900046e-01       1.230666099380e+03 
       1.425581997539e-01       1.184338669210e+03 
       1.473527147644e-01       1.134597997199e+03 
       1.523001198777e-01       1.081327321279e+03 
       1.574071008123e-01       1.025488286254e+03 
       1.626803539968e-01       9.689487510320e+02 
       1.681265955918e-01       9.140656125770e+02 
       1.737525707575e-01       8.631123957545e+02 
       1.795650641798e-01       8.176980852629e+02 
       1.855709128310e-01       7.783322278590e+02 
       1.917770219272e-01       7.442609018863e+02 
       1.981903850275e-01       7.136468944710e+02 
       2.048181092117e-01       6.840994177608e+02 
       2.116674462734e-01       6.534519114249e+02 
       2.187458308657e-01       6.205449506311e+02 
       2.260609265591e-01       5.856752348195e+02 
       2.336206808110e-01       5.504451647141e+02 
       2.414333899179e-01       5.170201580410e+02 
       2.495077751396e-01       4.871236029886e+02 
       2.578530713625e-01       4.612521482369e+02 
       2.664791299242e-01       4.384928429247e+02 
       2.753965375837e-01       4.170524015376e+02 
       2.846167541112e-01       3.952666177728e+02 
       2.941522716308e-01       3.725411038322e+02 
       3.040167997304e-01       3.496084539277e+02 
       3.142254815114e-01       3.278900159423e+02 
       3.247951472913e-01       3.084153965003e+02 
       3.357446147054e-01       2.911050888233e+02 
       3.470950466750e-01       2.749453420472e+02 
       3.588703823632e-01       2.588963275868e+02 
       3.710978612104e-01       2.427519197422e+02 
       3.838086669830e-01       2.271604377235e+02 
       3.970387283059e-01       2.128160550186e+02 
       4.108297256597e-01       1.997046725941e+02 
       4.252303742470e-01       1.872158435853e+02 
       4.402980805744e-01       1.749251610405e+02 
       4.561011130138e-01       1.630313527707e+02 
       4.727214911967e-01       1.519019518079e+02 
       4.902588996965e-01       1.414643150039e+02 
       5.088360921026e-01       1.313789030143e+02 
       5.286065153425e-01       1.216062533351e+02 
       5.497653307825e-01       1.123175441664e+02 
       5.725657918826e-01       1.034326130745e+02 
       5.973443666972e-01       9.479605686383e+01 
       6.245607177476e-01       8.644797868164e+01 
       6.548641172827e-01       7.833155627088e+01 
       6.892094910092e-01       7.035210236953e+01 
       7.290726139232e-01       6.246118970115e+01 
       7.768779681789e-01       5.453871858043e+01 
       8.369186657883e-01       4.645143408073e+01 
       9.174867000382e-01       3.801563545039e+01 
       1.035845781209e+00       2.907441120422e+01 
       1.225837930578e+00       1.991223797185e+01 
       1.520823563612e+00       1.214295589770e+01 
       1.913173914584e+00       7.093619999254e+00 
       2.408523993269e+00       4.094121784776e+00 
       3.032152012146e+00       2.340947143889e+00 
       3.817253220498e+00       1.327292088962e+00 
       4.805637082538e+00       7.468528060728e-01 
       6.049938643067e+00       4.173536880070e-01 
       7.616421497553e+00       2.317631166983e-01 
       9.588506570205e+00       1.279655918763e-01 
       1.207121458239e+01       7.028458798476e-02 
