# Matter power spectrum P(k) at redshift z=2.5
# for k=2.26201e-07 to 11.3488 h/Mpc,
# number of wavenumbers equal to 139
#    1:k (h/Mpc)              2:P (Mpc/h)^3        
       2.262014669897e-07       9.332773595885e-02 
       2.847707749784e-07       1.164154791857e-01 
       3.585051651567e-07       1.452147493704e-01 
       4.513312626752e-07       1.811384841778e-01 
       5.681923957189e-07       2.259491585738e-01 
       7.153118457588e-07       2.818452547025e-01 
       9.005242599831e-07       3.515691227944e-01 
       1.133692874830e-06       4.385415249636e-01 
       1.427234769293e-06       5.470294626561e-01 
       1.796782119660e-06       6.823555219360e-01 
       2.262014669897e-06       8.511590063984e-01 
       2.847707749784e-06       1.061721667854e+00 
       3.585051651567e-06       1.324374016642e+00 
       4.513312626752e-06       1.652002140340e+00 
       5.681923957189e-06       2.060679889986e+00 
       7.153118457588e-06       2.570457440094e+00 
       9.005242599831e-06       3.206344885517e+00 
       1.133692874830e-05       3.999539082852e+00 
       1.427234769293e-05       4.988953842687e+00 
       1.796782119660e-05       6.223128349614e+00 
       2.262014669897e-05       7.762607097427e+00 
       2.847707749784e-05       9.682907371906e+00 
       3.585051651567e-05       1.207821847296e+01 
       4.513312626752e-05       1.506601137337e+01 
       5.681923957189e-05       1.879277948929e+01 
       7.153118457588e-05       2.344118131525e+01 
       9.005242599831e-05       2.923891407288e+01 
       1.133692874830e-04       3.646971156152e+01 
       1.427234769293e-04       4.548692339726e+01 
       1.796782119660e-04       5.673018086195e+01 
       2.262014669897e-04       7.074565517790e+01 
       2.847707749784e-04       8.821030508704e+01 
       3.585051651567e-04       1.099601822037e+02 
       4.513312626752e-04       1.370221406372e+02 
       5.681923957189e-04       1.706469664092e+02 
       7.153118457588e-04       2.123398910380e+02 
       9.005242599831e-04       2.638820459541e+02 
       1.133692874830e-03       3.273348065332e+02 
       1.427234769293e-03       4.050183052726e+02 
       1.796782119660e-03       4.994473079518e+02 
       2.262014669897e-03       6.131750164528e+02 
       2.847707749784e-03       7.484719405191e+02 
       3.585051651567e-03       9.068386431672e+02 
       4.513312626752e-03       1.088331658645e+03 
       5.681923957189e-03       1.290592193496e+03 
       7.153118457588e-03       1.507616283297e+03 
       9.005242599831e-03       1.728323820446e+03 
       1.133692874830e-02       1.935021614351e+03 
       1.427234769293e-02       2.102305574769e+03 
       1.796782119648e-02       2.197776877013e+03 
       2.262014620172e-02       2.187712220874e+03 
       2.847678584315e-02       2.052281906948e+03 
       3.581786919511e-02       1.811296176479e+03 
       4.423898046454e-02       1.556051365083e+03 
       5.097462727006e-02       1.402991364323e+03 
       5.593776616877e-02       1.317239705614e+03 
       6.008952020814e-02       1.257578522333e+03 
       6.382466019878e-02       1.209179910162e+03 
       6.732378619728e-02       1.165514436617e+03 
       7.068439910129e-02       1.123214936353e+03 
       7.396579689603e-02       1.080471978284e+03 
       7.720734988190e-02       1.036417793278e+03 
       8.043704225921e-02       9.908408712486e+02 
       8.367590002588e-02       9.440184950200e+02 
       8.694047561779e-02       8.965888481560e+02 
       9.024433162527e-02       8.494315544133e+02 
       9.359897219793e-02       8.035469736337e+02 
       9.701445207939e-02       7.599351258921e+02 
       1.004997884711e-01       7.194807295422e+02 
       1.040632474109e-01       6.828518369753e+02 
       1.077125474992e-01       6.504195530289e+02 
       1.114550075211e-01       6.222046668078e+02 
       1.152976549621e-01       5.978557629787e+02 
       1.192473066202e-01       5.766644099200e+02 
       1.233106289066e-01       5.576249165879e+02 
       1.274941831199e-01       5.395449814295e+02 
       1.318044594782e-01       5.212087401422e+02 
       1.362479027099e-01       5.015786094312e+02 
       1.408309313395e-01       4.800022644818e+02 
       1.455599523766e-01       4.563713091347e+02 
       1.504413728164e-01       4.311748416414e+02 
       1.554816091771e-01       4.054101329451e+02 
       1.606870961709e-01       3.803553422640e+02 
       1.660642955297e-01       3.572564103632e+02 
       1.716197059552e-01       3.370113386787e+02 
       1.773598751354e-01       3.199352686024e+02 
       1.832914147472e-01       3.056677876131e+02 
       1.894210193536e-01       2.932567169198e+02 
       1.957554900937e-01       2.814242010423e+02 
       2.023017640622e-01       2.689734355947e+02 
       2.090669502774e-01       2.552170722152e+02 
       2.160583731536e-01       2.402441177507e+02 
       2.232836244327e-01       2.248675651907e+02 
       2.307506245935e-01       2.102423082960e+02 
       2.384676948677e-01       1.973269247949e+02 
       2.464436411548e-01       1.864509399516e+02 
       2.546878513689e-01       1.771913877076e+02 
       2.632104080833e-01       1.686217674193e+02 
       2.720222188009e-01       1.598301044407e+02 
       2.811351667929e-01       1.504355686524e+02 
       2.905622862727e-01       1.407696934221e+02 
       3.003179667583e-01       1.315758082449e+02 
       3.104181929166e-01       1.234409049928e+02 
       3.208808280881e-01       1.163855503224e+02 
       3.317259522328e-01       1.099102552459e+02 
       3.429762684566e-01       1.034483181809e+02 
       3.546575969162e-01       9.684128428090e+01 
       3.667994812820e-01       9.040228122663e+01 
       3.794359418267e-01       8.451839130800e+01 
       3.926064217719e-01       7.922868428241e+01 
       4.063569915803e-01       7.423238826158e+01 
       4.207419022614e-01       6.928316501825e+01 
       4.358256180516e-01       6.445884745098e+01 
       4.516855185481e-01       5.996398748980e+01 
       4.684155532073e-01       5.579164977053e+01 
       4.861312790348e-01       5.176748407942e+01 
       5.049769545626e-01       4.785271519833e+01 
       5.251357723681e-01       4.414229433489e+01 
       5.468450276675e-01       4.061466528401e+01 
       5.704193205548e-01       3.718594971222e+01 
       5.962873589163e-01       3.387680044674e+01 
       6.250528612500e-01       3.067318507156e+01 
       6.576004873025e-01       2.752817846751e+01 
       6.952912328563e-01       2.442979518194e+01 
       7.403485205304e-01       2.132897851340e+01 
       7.966827870966e-01       1.817759165107e+01 
       8.717910972752e-01       1.490577786395e+01 
       9.812184306410e-01       1.145105501144e+01 
       1.155988535427e+00       7.900518971624e+00 
       1.430199112393e+00       4.834956694177e+00 
       1.798682734731e+00       2.819605230303e+00 
       2.264379316430e+00       1.624397783371e+00 
       2.850684581997e+00       9.275461615718e-01 
       3.588799261254e+00       5.254153560917e-01 
       4.518030587821e+00       2.954750259751e-01 
       5.687863518271e+00       1.650734746173e-01 
       7.160595921969e+00       9.166973120473e-02 
       9.014656169756e+00       5.062793993882e-02 
       1.134877973069e+01       2.782063392893e-02 
