# Matter power spectrum P(k) at redshift z=0.5
# for k=2.06793e-07 to 10.3748 h/Mpc,
# number of wavenumbers equal to 139
#    1:k (h/Mpc)              2:P (Mpc/h)^3        
       2.067926229404e-07       6.949841749567e-01 
       2.603364879913e-07       8.669118019306e-01 
       3.277442203495e-07       1.081371488885e+00 
       4.126055275666e-07       1.348884965850e+00 
       5.194395837003e-07       1.682576864792e+00 
       6.539356918121e-07       2.098818634252e+00 
       8.232562601015e-07       2.618031747254e+00 
       1.036418226260e-06       3.265689608674e+00 
       1.304773242286e-06       4.073567315764e+00 
       1.642612191343e-06       5.081300586383e+00 
       2.067926229404e-06       6.338330330580e+00 
       2.603364879913e-06       7.906328264514e+00 
       3.277442203495e-06       9.862222551076e+00 
       4.126055275666e-06       1.230197187858e+01 
       5.194395837003e-06       1.534527306788e+01 
       6.539356918121e-06       1.914143304265e+01 
       8.232562601015e-06       2.387669298590e+01 
       1.036418226260e-05       2.978336348793e+01 
       1.304773242286e-05       3.715121786705e+01 
       1.642612191343e-05       4.634170056676e+01 
       2.067926229404e-05       5.780564372907e+01 
       2.603364879913e-05       7.210535319145e+01 
       3.277442203495e-05       8.994213180679e+01 
       4.126055275666e-05       1.121905594696e+02 
       5.194395837003e-05       1.399411506356e+02 
       6.539356918121e-05       1.745533620849e+02 
       8.232562601015e-05       2.177213153943e+02 
       1.036418226260e-04       2.715549968214e+02 
       1.304773242286e-04       3.386800197696e+02 
       1.642612191343e-04       4.223591131197e+02 
       2.067926229404e-04       5.266380098342e+02 
       2.603364879913e-04       6.565168039939e+02 
       3.277442203495e-04       8.181443202680e+02 
       4.126055275666e-04       1.019026782103e+03 
       5.194395837003e-04       1.268233079231e+03 
       6.539356918121e-04       1.576569195509e+03 
       8.232562601015e-04       1.956685196180e+03 
       1.036418226260e-03       2.423053241627e+03 
       1.304773242286e-03       2.991664041075e+03 
       1.642612191343e-03       3.679161630270e+03 
       2.067926229404e-03       4.501210411112e+03 
       2.603364879913e-03       5.469892357463e+03 
       3.277442203495e-03       6.589826806388e+03 
       4.126055275666e-03       7.853021850403e+03 
       5.194395837003e-03       9.232189835723e+03 
       6.539356918121e-03       1.064099564605e+04 
       8.232562601015e-03       1.204120002883e+04 
       1.036418226260e-02       1.327971937682e+04 
       1.304773242286e-02       1.418275919870e+04 
       1.642612191337e-02       1.454593284318e+04 
       2.067926199176e-02       1.417902105775e+04 
       2.603345182729e-02       1.300712747900e+04 
       3.275040087994e-02       1.122153120197e+04 
       4.054819407728e-02       9.435210077161e+03 
       4.691709123462e-02       8.382521256451e+03 
       5.157714119014e-02       7.806535013960e+03 
       5.545301125123e-02       7.408800017174e+03 
       5.892931026416e-02       7.086495583066e+03 
       6.218011144468e-02       6.796491996799e+03 
       6.529863334843e-02       6.517692292978e+03 
       6.834124053565e-02       6.239520403821e+03 
       7.134519124988e-02       5.957509816750e+03 
       7.433687570649e-02       5.671218225191e+03 
       7.733606470051e-02       5.382985429906e+03 
       8.035828408851e-02       5.097000548702e+03 
       8.341622820602e-02       4.818481806365e+03 
       8.652064485071e-02       4.552911668146e+03 
       8.968091273482e-02       4.305334055039e+03 
       9.290543130617e-02       4.079745465216e+03 
       9.620189140750e-02       3.878615019715e+03 
       9.957746759229e-02       3.702561092857e+03 
       1.030389573482e-01       3.550203312994e+03 
       1.065928833653e-01       3.418208046628e+03 
       1.102455694697e-01       3.301550752782e+03 
       1.140031974066e-01       3.194024540707e+03 
       1.178718494677e-01       3.089006773623e+03 
       1.218575405339e-01       2.980443966609e+03 
       1.259662421681e-01       2.863922054379e+03 
       1.302039007679e-01       2.737588215386e+03 
       1.345764513779e-01       2.602635497745e+03 
       1.390898284795e-01       2.463115048846e+03 
       1.437499749010e-01       2.325018129169e+03 
       1.485628498695e-01       2.194813484550e+03 
       1.535344371526e-01       2.077823681402e+03 
       1.586707541928e-01       1.976877981608e+03 
       1.639778631049e-01       1.891588741038e+03 
       1.694618843925e-01       1.818445557726e+03 
       1.751290142229e-01       1.751775981561e+03 
       1.809855460952e-01       1.685447876466e+03 
       1.870378977306e-01       1.614903276118e+03 
       1.932926440168e-01       1.538785712326e+03 
       1.997565568565e-01       1.459350289813e+03 
       2.064366527975e-01       1.381303735826e+03 
       2.133402493867e-01       1.309551845758e+03 
       2.204750312859e-01       1.246952682305e+03 
       2.278491273351e-01       1.193145826447e+03 
       2.354711999692e-01       1.144971645628e+03 
       2.433505486963e-01       1.098278899040e+03 
       2.514972297650e-01       1.050226181046e+03 
       2.599221947094e-01       1.000740164852e+03 
       2.686374512121e-01       9.521399642267e+02 
       2.776562507149e-01       9.071960524205e+02 
       2.869933085187e-01       8.670906887513e+02 
       2.966650638543e-01       8.307663217977e+02 
       3.066899897170e-01       7.960322054806e+02 
       3.170889653743e-01       7.614381126655e+02 
       3.278857286733e-01       7.272769939541e+02 
       3.391074310822e-01       6.948612335414e+02 
       3.507853264686e-01       6.649455953933e+02 
       3.629556360303e-01       6.370029373993e+02 
       3.756606481617e-01       6.100059543789e+02 
       3.889501359445e-01       5.836197190303e+02 
       4.028832105056e-01       5.583022923371e+02 
       4.175307824628e-01       5.343610017399e+02 
       4.329788874741e-01       5.114534902672e+02 
       4.493332652226e-01       4.891742096005e+02 
       4.667257991617e-01       4.675673108546e+02 
       4.853237918374e-01       4.467161278067e+02 
       5.053436916871e-01       4.263905331250e+02 
       5.270720496668e-01       4.064116023015e+02 
       5.508986862663e-01       3.867261818932e+02 
       5.773714345088e-01       3.671253580192e+02 
       6.072910643624e-01       3.473829552162e+02 
       6.418857427439e-01       3.272118572027e+02 
       6.831543108633e-01       3.061722427544e+02 
       7.345960802101e-01       2.836027623611e+02 
       8.028858098477e-01       2.584286483134e+02 
       9.018194536633e-01       2.289405042218e+02 
       1.059215295493e+00       1.932561881267e+02 
       1.307759800462e+00       1.534752847619e+02 
       1.644314893825e+00       1.172826603584e+02 
       2.070035347255e+00       8.711647923549e+01 
       2.606019991196e+00       6.263104390406e+01 
       3.280784790512e+00       4.346903067694e+01 
       4.130263343403e+00       2.915858103844e+01 
       5.199693480412e+00       1.897898700040e+01 
       6.546026256031e+00       1.204662870108e+01 
       8.240958799990e+00       7.493338318464e+00 
       1.037475245086e+01       4.587825062927e+00 
