# Matter power spectrum P(k) at redshift z=0.5
# for k=2.31821e-07 to 11.631 h/Mpc,
# number of wavenumbers equal to 139
#    1:k (h/Mpc)              2:P (Mpc/h)^3        
       2.318208568018e-07       4.204368231194e-01 
       2.918451676117e-07       5.258607368212e-01 
       3.674112978157e-07       6.577195413195e-01 
       4.625434194005e-07       8.226417463246e-01 
       5.823076647415e-07       1.028917950311e+00 
       7.330819166256e-07       1.286917606640e+00 
       9.228954537667e-07       1.609610292916e+00 
       1.161856539176e-06       2.013217687378e+00 
       1.462690722028e-06       2.518029026476e+00 
       1.841418519557e-06       3.149421035755e+00 
       2.318208568018e-06       3.939133602834e+00 
       2.918451676117e-06       4.926865316970e+00 
       3.674112978157e-06       6.162269074041e+00 
       4.625434194005e-06       7.707448048761e+00 
       5.823076647415e-06       9.640077474243e+00 
       7.330819166256e-06       1.205730909572e+01 
       9.228954537667e-06       1.508065444598e+01 
       1.161856539176e-05       1.886209217325e+01 
       1.462690722028e-05       2.359170593411e+01 
       1.841418519557e-05       2.950723581244e+01 
       2.318208568018e-05       3.690602145715e+01 
       2.918451676117e-05       4.615993340965e+01 
       3.674112978157e-05       5.773403553041e+01 
       4.625434194005e-05       7.220990140300e+01 
       5.823076647415e-05       9.031472668076e+01 
       7.330819166256e-05       1.129576412559e+02 
       9.228954537667e-05       1.412749292651e+02 
       1.161856539176e-04       1.766861995788e+02 
       1.462690722028e-04       2.209638801944e+02 
       1.841418519557e-04       2.763186582370e+02 
       2.318208568018e-04       3.455034959226e+02 
       2.918451676117e-04       4.319383408882e+02 
       3.674112978157e-04       5.398561847329e+02 
       4.625434194005e-04       6.744682037192e+02 
       5.823076647415e-04       8.421411234392e+02 
       7.330819166256e-04       1.050574293752e+03 
       9.228954537667e-04       1.308957552442e+03 
       1.161856539176e-03       1.628075723970e+03 
       1.462690722028e-03       2.020275339423e+03 
       1.841418519557e-03       2.499129914673e+03 
       2.318208568018e-03       3.078646421316e+03 
       2.918451676117e-03       3.771830035200e+03 
       3.674112978157e-03       4.588319524793e+03 
       4.625434194005e-03       5.530937440046e+03 
       5.823076647415e-03       6.567520581699e+03 
       7.330819166256e-03       7.706105586670e+03 
       9.228954537667e-03       8.876761222563e+03 
       1.161856539176e-02       9.990276018499e+03 
       1.462690722028e-02       1.091627871594e+04 
       1.841418519541e-02       1.148609839852e+04 
       2.318208503252e-02       1.152109612178e+04 
       2.918415973745e-02       1.091022138214e+04 
       3.670313571435e-02       9.743173744051e+03 
       4.526209479492e-02       8.482384772115e+03 
       5.202761924676e-02       7.719059973650e+03 
       5.703484983199e-02       7.281696500299e+03 
       6.123744357699e-02       6.972932950639e+03 
       6.502503518038e-02       6.720593305341e+03 
       6.857701401684e-02       6.492401085389e+03 
       7.199068909527e-02       6.271513631265e+03 
       7.532544452198e-02       6.048770567033e+03 
       7.862081023897e-02       5.819698597069e+03 
       8.190494219545e-02       5.583120766991e+03 
       8.519903183860e-02       5.340343579155e+03 
       8.851978628969e-02       5.094533096837e+03 
       9.188091218661e-02       4.850124403825e+03 
       9.529404859153e-02       4.612214928833e+03 
       9.876937777448e-02       4.385946293667e+03 
       1.023160386885e-01       4.175907331715e+03 
       1.059424147151e-01       3.985601252285e+03 
       1.096563385053e-01       3.817016490723e+03 
       1.134652404925e-01       3.670333318926e+03 
       1.173762581087e-01       3.543793123720e+03 
       1.213963169405e-01       3.433759720518e+03 
       1.255321914478e-01       3.335011015048e+03 
       1.297905505550e-01       3.241300713151e+03 
       1.341779919222e-01       3.146202807796e+03 
       1.387010677156e-01       3.044179537929e+03 
       1.433663040337e-01       2.931700288251e+03 
       1.481802157094e-01       2.808125968421e+03 
       1.531493179185e-01       2.676035258067e+03 
       1.582801358289e-01       2.540769145856e+03 
       1.635792134070e-01       2.409207368115e+03 
       1.690531224145e-01       2.288065777938e+03 
       1.747084725827e-01       2.182178275616e+03 
       1.805519239199e-01       2.093221398226e+03 
       1.865902020862e-01       2.019206785082e+03 
       1.928301177605e-01       1.954919824014e+03 
       1.992785909123e-01       1.893349277232e+03 
       2.059426808894e-01       1.827913150498e+03 
       2.128296232368e-01       1.754850000852e+03 
       2.199468741789e-01       1.674732433754e+03 
       2.273021637372e-01       1.592168234573e+03 
       2.349035585233e-01       1.513618875153e+03 
       2.427595353573e-01       1.444364196298e+03 
       2.508790670368e-01       1.386118386303e+03 
       2.592717218200e-01       1.336405162436e+03 
       2.679477785392e-01       1.289994216251e+03 
       2.769183597253e-01       1.241821867377e+03 
       2.861955857652e-01       1.189887624228e+03 
       2.957927539507e-01       1.136212180701e+03 
       3.057245474015e-01       1.085035617039e+03 
       3.160072803156e-01       1.039573039218e+03 
       3.266591879630e-01       9.997941533890e+02 
       3.377007724452e-01       9.628187066852e+02 
       3.491552187567e-01       9.255275869964e+02 
       3.610489004514e-01       8.871807292960e+02 
       3.734120007798e-01       8.496266451316e+02 
       3.862792843025e-01       8.149773201093e+02 
       3.996910669217e-01       7.833313092901e+02 
       4.136944508610e-01       7.529839628929e+02 
       4.283449183103e-01       7.226580552318e+02 
       4.437084179659e-01       6.928605003674e+02 
       4.598641403188e-01       6.646691264193e+02 
       4.769082734086e-01       6.379586286174e+02 
       4.949591836527e-01       6.117882265420e+02 
       5.141647170155e-01       5.859928671494e+02 
       5.347127395877e-01       5.610308966456e+02 
       5.568467784483e-01       5.367087995136e+02 
       5.808899738307e-01       5.125683384362e+02 
       6.072831223929e-01       4.886466878871e+02 
       6.366477313323e-01       4.647431792679e+02 
       6.698958935137e-01       4.404871113425e+02 
       7.084333994985e-01       4.155700744787e+02 
       7.545620911163e-01       3.893827353374e+02 
       8.123415342074e-01       3.610537708440e+02 
       8.895783554270e-01       3.291205510391e+02 
       1.002487849804e+00       2.912371144769e+02 
       1.183209298282e+00       2.448498862669e+02 
       1.465588095962e+00       1.930131135325e+02 
       1.843410132284e+00       1.454712422346e+02 
       2.320691767079e+00       1.054101658613e+02 
       2.921577772915e+00       7.324875369715e+01 
       3.678048500832e+00       4.896109939983e+01 
       4.630388723509e+00       3.168465861713e+01 
       5.829314030511e+00       1.998874340582e+01 
       7.338671566339e+00       1.236820495493e+01 
       9.238840123675e+00       7.543450883782e+00 
       1.163101060720e+01       4.552469003352e+00 
