# Matter power spectrum P(k) at redshift z=1.5
# for k=2.18154e-07 to 10.9447 h/Mpc,
# number of wavenumbers equal to 139
#    1:k (h/Mpc)              2:P (Mpc/h)^3        
       2.181536877809e-07       2.733957903812e-01 
       2.746392212240e-07       3.403939424911e-01 
       3.457502946743e-07       4.238106076086e-01 
       4.352738321008e-07       5.276692932977e-01 
       5.479772883207e-07       6.569795042432e-01 
       6.898625333530e-07       8.179783701355e-01 
       8.684854738828e-07       1.018431485998e+00 
       1.093358432845e-06       1.268007476137e+00 
       1.376456715308e-06       1.578744347676e+00 
       1.732856337136e-06       1.965630127673e+00 
       2.181536877809e-06       2.447325787550e+00 
       2.746392212240e-06       3.047065323075e+00 
       3.457502946743e-06       3.793776398542e+00 
       4.352738321008e-06       4.723475597680e+00 
       5.479772883207e-06       5.881005558617e+00 
       6.898625333530e-06       7.322197744803e+00 
       8.684854738828e-06       9.116565088122e+00 
       1.093358432845e-05       1.135065422582e+01 
       1.376456715308e-05       1.413221872744e+01 
       1.732856337136e-05       1.759541397247e+01 
       2.181536877809e-05       2.190726309282e+01 
       2.746392212240e-05       2.727570347279e+01 
       3.457502946743e-05       3.395959731081e+01 
       4.352738321008e-05       4.228117994560e+01 
       5.479772883207e-05       5.264152840205e+01 
       6.898625333530e-05       6.553976080854e+01 
       8.684854738828e-05       8.159682328650e+01 
       1.093358432845e-04       1.015848751873e+02 
       1.376456715308e-04       1.264634240520e+02 
       1.732856337136e-04       1.574234370518e+02 
       2.181536877809e-04       1.959405657848e+02 
       2.746392212240e-04       2.438381800057e+02 
       3.457502946743e-04       3.033598054430e+02 
       4.352738321008e-04       3.772483759522e+02 
       5.479772883207e-04       4.688260728464e+02 
       6.898625333530e-04       5.820636821101e+02 
       8.684854738828e-04       7.216239633841e+02 
       1.093358432845e-03       8.928608337803e+02 
       1.376456715308e-03       1.101745479988e+03 
       1.732856337136e-03       1.354640171035e+03 
       2.181536877809e-03       1.657769326571e+03 
       2.746392212240e-03       2.016307843808e+03 
       3.457502946743e-03       2.433058119349e+03 
       4.352738321008e-03       2.906589392843e+03 
       5.479772883207e-03       3.424866111975e+03 
       6.898625333530e-03       3.975739221215e+03 
       8.684854738828e-03       4.525053939056e+03 
       1.093358432845e-02       5.024422152588e+03 
       1.376456715308e-02       5.406587750375e+03 
       1.732856337130e-02       5.588464199058e+03 
       2.181536844831e-02       5.487366040217e+03 
       2.746370908015e-02       5.061829675387e+03 
       3.454923067363e-02       4.377338788103e+03 
       4.276725251871e-02       3.679127610738e+03 
       4.946760420092e-02       3.270219465882e+03 
       5.437288397052e-02       3.051423374483e+03 
       5.845466527964e-02       2.904279200481e+03 
       6.211657550277e-02       2.787427479024e+03 
       6.554145598863e-02       2.683134235533e+03 
       6.882728615679e-02       2.582425021253e+03 
       7.203333760610e-02       2.480553816133e+03 
       7.519880438045e-02       2.375290998125e+03 
       7.835145582867e-02       2.266135620590e+03 
       8.151210091382e-02       2.153855697532e+03 
       8.469708407041e-02       2.040139386512e+03 
       8.791977126032e-02       1.927272606105e+03 
       9.119148063451e-02       1.817819341149e+03 
       9.452208989661e-02       1.714308160291e+03 
       9.792044637518e-02       1.618941787535e+03 
       1.013946517776e-01       1.533349873583e+03 
       1.049522645406e-01       1.458401273324e+03 
       1.086004463289e-01       1.394086848924e+03 
       1.123460696547e-01       1.339479881684e+03 
       1.161957977871e-01       1.292783919923e+03 
       1.201561445102e-01       1.251483702445e+03 
       1.242335189846e-01       1.212616344023e+03 
       1.284342594688e-01       1.173168273592e+03 
       1.327646586746e-01       1.130567945860e+03 
       1.372309828723e-01       1.083191586289e+03 
       1.418394864275e-01       1.030751026325e+03 
       1.465964231599e-01       9.744204531662e+02 
       1.515080557262e-01       9.166110187054e+02 
       1.565806641032e-01       8.604086442152e+02 
       1.618205541707e-01       8.088113286345e+02 
       1.672340673437e-01       7.639735703339e+02 
       1.728275921739e-01       7.266577177882e+02 
       1.786075788186e-01       6.960270614210e+02 
       1.845805572655e-01       6.698473240123e+02 
       1.907531601900e-01       6.451050975275e+02 
       1.971321513200e-01       6.189532963828e+02 
       2.037244601853e-01       5.897177306782e+02 
       2.105372241458e-01       5.575370513885e+02 
       2.175778386251e-01       5.242573711672e+02 
       2.248540165426e-01       4.925492198663e+02 
       2.323738580369e-01       4.646571138237e+02 
       2.401459317332e-01       4.413953199146e+02 
       2.481793690358e-01       4.218533506952e+02 
       2.564839732485e-01       4.039435880395e+02 
       2.650703457663e-01       3.855629920069e+02 
       2.739500321761e-01       3.657756977805e+02 
       2.831356918948e-01       3.452608781074e+02 
       2.926412960195e-01       3.256691802475e+02 
       3.024823594469e-01       3.083515712379e+02 
       3.126762151565e-01       2.934178576725e+02 
       3.232423409904e-01       2.797994214632e+02 
       3.342027525506e-01       2.662244388876e+02 
       3.455824802881e-01       2.522835348565e+02 
       3.574101549835e-01       2.386202581803e+02 
       3.697187343379e-01       2.260928138345e+02 
       3.825464154392e-01       2.148337981450e+02 
       3.959377951453e-01       2.042164194216e+02 
       4.099453656657e-01       1.936821767770e+02 
       4.246314701575e-01       1.833579092361e+02 
       4.400709001548e-01       1.736811088584e+02 
       4.563544051313e-01       1.646671348926e+02 
       4.735935253069e-01       1.559504254677e+02 
       4.919273890737e-01       1.474201720866e+02 
       5.115325046514e-01       1.392664309142e+02 
       5.326372529859e-01       1.314584272461e+02 
       5.555440174246e-01       1.238102046073e+02 
       5.806642136003e-01       1.163435552934e+02 
       6.085761194076e-01       1.090268192401e+02 
       6.401251772911e-01       1.017394893129e+02 
       6.766083924644e-01       9.442768496326e+01 
       7.201372894690e-01       8.694506530967e+01 
       7.744098342304e-01       7.911487796595e+01 
       8.464826450662e-01       7.065110114533e+01 
       9.509448809615e-01       6.115113855383e+01 
       1.117191181739e+00       5.032630352459e+01 
       1.379579982329e+00       3.917853559858e+01 
       1.734653927317e+00       2.981705071862e+01 
       2.183764414654e+00       2.244641494927e+01 
       2.749196401826e+00       1.661521963460e+01 
       3.461033212222e+00       1.202251832133e+01 
       4.357182661930e+00       8.466895098283e+00 
       5.485367976933e+00       5.787210059889e+00 
       6.905669139202e+00       3.835853424154e+00 
       8.693722364785e+00       2.469512166732e+00 
       1.094474800811e+01       1.549821812493e+00 
