# Matter power spectrum P(k) at redshift z=1.5
# for k=2.09431e-07 to 10.5071 h/Mpc,
# number of wavenumbers equal to 139
#    1:k (h/Mpc)              2:P (Mpc/h)^3        
       2.094313437146e-07       2.169389345087e-01 
       2.636584406285e-07       2.720116485565e-01 
       3.319263109412e-07       3.410652729737e-01 
       4.178704676870e-07       4.276490399795e-01 
       5.260677506095e-07       5.362131994996e-01 
       6.622800595676e-07       6.723377538447e-01 
       8.337611967143e-07       8.430192594049e-01 
       1.049643157911e-06       1.057030436516e+00 
       1.321422444811e-06       1.325371070182e+00 
       1.663572295487e-06       1.661833376485e+00 
       2.094313437146e-06       2.083710892679e+00 
       2.636584406285e-06       2.612687323071e+00 
       3.319263109412e-06       3.275951021416e+00 
       4.178704676870e-06       4.107592382861e+00 
       5.260677506095e-06       5.150355944044e+00 
       6.622800595676e-06       6.457837211893e+00 
       8.337611967142e-06       8.097237049562e+00 
       1.049643157911e-05       1.015281502408e+01 
       1.321422444811e-05       1.273021890897e+01 
       1.663572295487e-05       1.596191221036e+01 
       2.094313437146e-05       2.001397744576e+01 
       2.636584406285e-05       2.509464232657e+01 
       3.319263109412e-05       3.146496211132e+01 
       4.178704676870e-05       3.945219730206e+01 
       5.260677506095e-05       4.946655468336e+01 
       6.622800595676e-05       6.202211331890e+01 
       8.337611967143e-05       7.776293425887e+01 
       1.049643157911e-04       9.749554432068e+01 
       1.321422444811e-04       1.222291655291e+02 
       1.663572295487e-04       1.532251759715e+02 
       2.094313437146e-04       1.920572193876e+02 
       2.636584406285e-04       2.406829138894e+02 
       3.319263109412e-04       3.015268831315e+02 
       4.178704676870e-04       3.775723382640e+02 
       5.260677506095e-04       4.724542291031e+02 
       6.622800595676e-04       5.905413274015e+02 
       8.337611967143e-04       7.369894044117e+02 
       1.049643157911e-03       9.177445249124e+02 
       1.321422444811e-03       1.139462894547e+03 
       1.663572295487e-03       1.409254676971e+03 
       2.094313437146e-03       1.734078466379e+03 
       2.636584406285e-03       2.119700585174e+03 
       3.319263109412e-03       2.569187064307e+03 
       4.178704676870e-03       3.080797178793e+03 
       5.260677506095e-03       3.645133812526e+03 
       6.622800595676e-03       4.241705132366e+03 
       8.337611967143e-03       4.835170509838e+03 
       1.049643157911e-02       5.371615819428e+03 
       1.321422444811e-02       5.776462554766e+03 
       1.663572295483e-02       5.957999301641e+03 
       2.094313415454e-02       5.825561286477e+03 
       2.636568964702e-02       5.335199301553e+03 
       3.317239346471e-02       4.562973623884e+03 
       4.114601791688e-02       3.780849376397e+03 
       4.777868660703e-02       3.327242158972e+03 
       5.260577271551e-02       3.094786353606e+03 
       5.660079106205e-02       2.943578417297e+03 
       6.017458736784e-02       2.825555689538e+03 
       6.351145575813e-02       2.720453697405e+03 
       6.670941394983e-02       2.618113554066e+03 
       6.982743788267e-02       2.513214582358e+03 
       7.290436776069e-02       2.403321357116e+03 
       7.596763339779e-02       2.287994347516e+03 
       7.903773441837e-02       2.168269147960e+03 
       8.213073573057e-02       2.046252195808e+03 
       8.525974898736e-02       1.924740179708e+03 
       8.843585816254e-02       1.806838260596e+03 
       9.166872241496e-02       1.695586673964e+03 
       9.496698246532e-02       1.593618478346e+03 
       9.833854240756e-02       1.502873589633e+03 
       1.017907697499e-01       1.424387162982e+03 
       1.053306401165e-01       1.358160786287e+03 
       1.089648434751e-01       1.303120428909e+03 
       1.126998629774e-01       1.257169568140e+03 
       1.165420339002e-01       1.217356047614e+03 
       1.204975878875e-01       1.180178712798e+03 
       1.245726862067e-01       1.142049016168e+03 
       1.287734447523e-01       1.099879327542e+03 
       1.331059528822e-01       1.051700395280e+03 
       1.375762877380e-01       9.971446913385e+02 
       1.421905254123e-01       9.376127402903e+02 
       1.469547501390e-01       8.760042732883e+02 
       1.518750625560e-01       8.160344948901e+02 
       1.569575880169e-01       7.613098060906e+02 
       1.622084858743e-01       7.144226492901e+02 
       1.676339606299e-01       6.763032789353e+02 
       1.732402758266e-01       6.459760970555e+02 
       1.790337715446e-01       6.207882229920e+02 
       1.850208863534e-01       5.971277951729e+02 
       1.912081845721e-01       5.715481207590e+02 
       1.976023896877e-01       5.419952160757e+02 
       2.042104247988e-01       5.086112914648e+02 
       2.110394609854e-01       4.736277790497e+02 
       2.180969745620e-01       4.402948707304e+02 
       2.253908142723e-01       4.113574861668e+02 
       2.329292796311e-01       3.878342178292e+02 
       2.407212118410e-01       3.686527841927e+02 
       2.487760990134e-01       3.512948429311e+02 
       2.571041978515e-01       3.331935944915e+02 
       2.657166745152e-01       3.131864752203e+02 
       2.746257681495e-01       2.920899937436e+02 
       2.838449815562e-01       2.719299997210e+02 
       2.933893048168e-01       2.543848954680e+02 
       3.032754794289e-01       2.396207666307e+02 
       3.135223128547e-01       2.263486176713e+02 
       3.241510565250e-01       2.130065317942e+02 
       3.351858645990e-01       1.990788072502e+02 
       3.466543566311e-01       1.853552266841e+02 
       3.585883154324e-01       1.729107144569e+02 
       3.710245628998e-01       1.619352759766e+02 
       3.840060730580e-01       1.516701861800e+02 
       3.975834055863e-01       1.414222558007e+02 
       4.118165788139e-01       1.313451849788e+02 
       4.267775553212e-01       1.219948799803e+02 
       4.425535972638e-01       1.134129456172e+02 
       4.592518819828e-01       1.051558014501e+02 
       4.770059863711e-01       9.708673664205e+01 
       4.959852152462e-01       8.945617277260e+01 
       5.164083877365e-01       8.224913705050e+01 
       5.385648516529e-01       7.524728347712e+01 
       5.628476809164e-01       6.849582618988e+01 
       5.898083511557e-01       6.198982734541e+01 
       6.202513076048e-01       5.561281685706e+01 
       6.554072520537e-01       4.935316669558e+01 
       6.972729308188e-01       4.310958358171e+01 
       7.493307700396e-01       3.679310141843e+01 
       8.181952590035e-01       3.026729764108e+01 
       9.174988461310e-01       2.340279325771e+01 
       1.074935323816e+00       1.632018890238e+01 
       1.324751637758e+00       1.006104162859e+01 
       1.665300615630e+00       5.867615075693e+00 
       2.096444887103e+00       3.379169069971e+00 
       2.639267587441e+00       1.929874415781e+00 
       3.322641034278e+00       1.093910196853e+00 
       4.182957232323e+00       6.158420548873e-01 
       5.266031156219e+00       3.445538502443e-01 
       6.629540441864e+00       1.916808385262e-01 
       8.346096930780e+00       1.060815958773e-01 
       1.050711351546e+01       5.842812419757e-02 
