# Matter power spectrum P(k) at redshift z=1.5
# for k=2.38344e-07 to 11.9583 h/Mpc,
# number of wavenumbers equal to 139
#    1:k (h/Mpc)              2:P (Mpc/h)^3        
       2.383437714422e-07       1.748571889682e-01 
       3.000570306114e-07       2.181139747362e-01 
       3.777494208243e-07       2.720717761039e-01 
       4.755583451662e-07       3.393778478435e-01 
       5.986924855205e-07       4.233343318249e-01 
       7.537091838720e-07       5.280602651908e-01 
       9.488636446790e-07       6.586936666840e-01 
       1.194548554614e-06       8.216436155422e-01 
       1.503847531026e-06       1.024904690263e+00 
       1.893231872272e-06       1.278449193854e+00 
       2.383437714422e-06       1.594716407955e+00 
       3.000570306114e-06       1.989222877528e+00 
       3.777494208243e-06       2.481323666098e+00 
       4.755583451662e-06       3.095161923497e+00 
       5.986924855205e-06       3.860853342208e+00 
       7.537091838720e-06       4.815963594209e+00 
       9.488636446790e-06       6.007351189317e+00 
       1.194548554614e-05       7.493466086584e+00 
       1.503847531026e-05       9.347216667778e+00 
       1.893231872272e-05       1.165954540629e+01 
       2.383437714422e-05       1.454388801510e+01 
       3.000570306114e-05       1.814173357621e+01 
       3.777494208243e-05       2.262955593437e+01 
       4.755583451662e-05       2.822745146325e+01 
       5.986924855205e-05       3.520989718377e+01 
       7.537091838720e-05       4.391913780620e+01 
       9.488636446790e-05       5.478182041428e+01 
       1.194548554614e-04       6.832961836712e+01 
       1.503847531026e-04       8.522471016309e+01 
       1.893231872272e-04       1.062910791289e+02 
       2.383437714422e-04       1.325526218377e+02 
       3.000570306114e-04       1.652788947505e+02 
       3.777494208243e-04       2.060388147299e+02 
       4.755583451662e-04       2.567615038724e+02 
       5.986924855205e-04       3.198014728632e+02 
       7.537091838720e-04       3.980024799528e+02 
       9.488636446790e-04       4.947513817690e+02 
       1.194548554614e-03       6.140107755975e+02 
       1.503847531026e-03       7.603122805179e+02 
       1.893231872272e-03       9.386631186661e+02 
       2.383437714422e-03       1.154271179277e+03 
       3.000570306114e-03       1.412013474686e+03 
       3.777494208243e-03       1.715613538856e+03 
       4.755583451662e-03       2.066383360971e+03 
       5.986924855205e-03       2.461408087060e+03 
       7.537091838720e-03       2.891107861235e+03 
       9.488636446790e-03       3.336256277082e+03 
       1.194548554614e-02       3.764552346930e+03 
       1.503847531026e-02       4.127739522430e+03 
       1.893231872255e-02       4.361912880100e+03 
       2.383437645937e-02       4.397266029086e+03 
       3.000532827677e-02       4.186903411238e+03 
       3.773529388257e-02       3.758557825021e+03 
       4.652618330728e-02       3.284530297223e+03 
       5.346561928040e-02       2.993882387065e+03 
       5.860428612306e-02       2.826046043820e+03 
       6.291886461513e-02       2.707090784668e+03 
       6.680818648760e-02       2.609656749086e+03 
       7.045601299641e-02       2.521389540809e+03 
       7.396208016423e-02       2.435772823142e+03 
       7.738727761166e-02       2.349210138256e+03 
       8.077214978666e-02       2.259896376671e+03 
       8.414558226259e-02       2.167296028686e+03 
       8.752932002512e-02       2.071840571116e+03 
       9.094050954788e-02       1.974697704362e+03 
       9.439322000435e-02       1.877552940025e+03 
       9.789939984164e-02       1.782382415500e+03 
       1.014695031506e-01       1.691218040288e+03 
       1.051129137440e-01       1.605916008291e+03 
       1.088382403110e-01       1.527944518380e+03 
       1.126535265490e-01       1.458207044182e+03 
       1.165664035231e-01       1.396915086602e+03 
       1.205842017157e-01       1.343523132756e+03 
       1.247140342918e-01       1.296738932968e+03 
       1.289628593966e-01       1.254624739339e+03 
       1.333375269323e-01       1.214804904309e+03 
       1.378448137213e-01       1.174783810044e+03 
       1.424914499468e-01       1.132352290545e+03 
       1.472841390848e-01       1.086019745000e+03 
       1.522295730935e-01       1.035368917289e+03 
       1.573344443257e-01       9.812148272912e+02 
       1.626054554357e-01       9.254789045772e+02 
       1.680493284233e-01       8.707682965614e+02 
       1.736728138782e-01       8.197475960997e+02 
       1.794827014382e-01       7.744650488544e+02 
       1.854858324414e-01       7.358118200099e+02 
       1.916891157338e-01       7.032592815811e+02 
       1.980995475816e-01       6.749649096747e+02 
       2.047242366248e-01       6.482762897366e+02 
       2.115704348090e-01       6.205647224759e+02 
       2.186455752346e-01       5.901597935691e+02 
       2.259573178833e-01       5.570043484847e+02 
       2.335136042169e-01       5.226645549041e+02 
       2.413227217195e-01       4.896057151314e+02 
       2.493933795666e-01       4.600453241729e+02 
       2.577347967773e-01       4.349368153546e+02 
       2.663568044645e-01       4.135708428912e+02 
       2.752699641464e-01       3.939994244978e+02 
       2.844857045714e-01       3.741230200944e+02 
       2.940164801607e-01       3.528905661263e+02 
       3.038759550387e-01       3.308539688704e+02 
       3.140792177714e-01       3.096420877597e+02 
       3.246430334517e-01       2.907090944876e+02 
       3.355861417835e-01       2.742924552981e+02 
       3.469296125001e-01       2.593537245081e+02 
       3.586972730645e-01       2.445298695269e+02 
       3.709162285046e-01       2.293004080217e+02 
       3.836174999796e-01       2.143050382744e+02 
       3.968368180850e-01       2.005114232977e+02 
       4.106156202009e-01       1.881413819648e+02 
       4.250023203161e-01       1.765277176322e+02 
       4.400539477304e-01       1.650050722719e+02 
       4.558382927159e-01       1.536828739872e+02 
       4.724367606319e-01       1.430897050375e+02 
       4.899482346351e-01       1.332869672016e+02 
       5.084944044801e-01       1.238413262275e+02 
       5.282272769037e-01       1.146009308552e+02 
       5.493400193636e-01       1.058164808859e+02 
       5.720830526456e-01       9.747700844939e+01 
       5.967886981761e-01       8.934965267522e+01 
       6.239103315792e-01       8.148060889373e+01 
       6.540872890331e-01       7.385962068209e+01 
       6.882579947085e-01       6.635504247035e+01 
       7.278691387008e-01       5.894830264616e+01 
       7.752901703091e-01       5.151384757449e+01 
       8.347012549161e-01       4.393571380783e+01 
       9.141438068912e-01       3.604031836619e+01 
       1.030324134865e+00       2.767548122619e+01 
       1.216326576654e+00       1.907054802394e+01 
       1.506811413200e+00       1.168147121994e+01 
       1.895285734999e+00       6.835664916470e+00 
       2.385999120503e+00       3.951369747563e+00 
       3.003794859764e+00       2.263134690544e+00 
       3.781553680751e+00       1.285491870500e+00 
       4.760694024761e+00       7.247140257855e-01 
       5.993358685548e+00       4.057920897415e-01 
       7.545191551234e+00       2.258109701890e-01 
       9.498833380703e+00       1.249465916165e-01 
       1.195832272537e+01       6.877757262856e-02 
