# Matter power spectrum P(k) at redshift z=0.5
# for k=2.08889e-07 to 10.4799 h/Mpc,
# number of wavenumbers equal to 139
#    1:k (h/Mpc)              2:P (Mpc/h)^3        
       2.088886831910e-07       5.958228430688e-01 
       2.629752715054e-07       7.454304842703e-01 
       3.310662519716e-07       9.326037313936e-01 
       4.167877175945e-07       1.166775088590e+00 
       5.247046490035e-07       1.459745506442e+00 
       6.605640163170e-07       1.826279084361e+00 
       8.316008262583e-07       2.284847099502e+00 
       1.046923412646e-06       2.858558855592e+00 
       1.317998488382e-06       3.576326260931e+00 
       1.659261789730e-06       4.474320822306e+00 
       2.088886831910e-06       5.597796474561e+00 
       2.629752715054e-06       7.003370098822e+00 
       3.310662519716e-06       8.761874641870e+00 
       4.167877175945e-06       1.096192858399e+01 
       5.247046490035e-06       1.371440158094e+01 
       6.605640163170e-06       1.715800120320e+01 
       8.316008262583e-06       2.146626207896e+01 
       1.046923412646e-05       2.685628918452e+01 
       1.317998488382e-05       3.359969498484e+01 
       1.659261789730e-05       4.203627973649e+01 
       2.088886831910e-05       5.259114076049e+01 
       2.629752715054e-05       6.579606566953e+01 
       3.310662519716e-05       8.231627340191e+01 
       4.167877175945e-05       1.029838224057e+02 
       5.247046490035e-05       1.288393136863e+02 
       6.605640163170e-05       1.611838800255e+02 
       8.316008262583e-05       2.016438638689e+02 
       1.046923412646e-04       2.522510165936e+02 
       1.317998488382e-04       3.155414278203e+02 
       1.659261789730e-04       3.946765599489e+02 
       2.088886831910e-04       4.935894195517e+02 
       2.629752715054e-04       6.171575229752e+02 
       3.310662519716e-04       7.714011373792e+02 
       4.167877175945e-04       9.636994826376e+02 
       5.247046490035e-04       1.203009062231e+03 
       6.605640163170e-04       1.500058764506e+03 
       8.316008262583e-04       1.867487059796e+03 
       1.046923412646e-03       2.319862445359e+03 
       1.317998488382e-03       2.873441482209e+03 
       1.659261789730e-03       3.545392061036e+03 
       2.088886831910e-03       4.352261795701e+03 
       2.629752715054e-03       5.307463199099e+03 
       3.310662519716e-03       6.417446716869e+03 
       4.167877175945e-03       7.676561345019e+03 
       5.247046490035e-03       9.039060050636e+03 
       6.605640163170e-03       1.048519077865e+04 
       8.316008262583e-03       1.191148175923e+04 
       1.046923412646e-02       1.318353982509e+04 
       1.317998488382e-02       1.411756510879e+04 
       1.659261789727e-02       1.449031902890e+04 
       2.088886812422e-02       1.408558086458e+04 
       2.629738465491e-02       1.280780047699e+04 
       3.308753846620e-02       1.085990812900e+04 
       4.106212948334e-02       8.916967272587e+03 
       4.773305826205e-02       7.800886649326e+03 
       5.258065720784e-02       7.237934718744e+03 
       5.658658676879e-02       6.876652097554e+03 
       6.016727540366e-02       6.597660229701e+03 
       6.350902092506e-02       6.351150420879e+03 
       6.671070072334e-02       6.112338627306e+03 
       6.983171943120e-02       5.868302061213e+03 
       7.291115570983e-02       5.613117977382e+03 
       7.597658321493e-02       5.345658252832e+03 
       7.904859391444e-02       5.068306928924e+03 
       8.214331500438e-02       4.785976727664e+03 
       8.527390188867e-02       4.505194105018e+03 
       8.845147033997e-02       4.233191141741e+03 
       9.168570332610e-02       3.977024870769e+03 
       9.498525987565e-02       3.742779090576e+03 
       9.835805851122e-02       3.534907088134e+03 
       1.018114783813e-01       3.355756247456e+03 
       1.053525047157e-01       3.205291173629e+03 
       1.089878355883e-01       3.081017786638e+03 
       1.127239611425e-01       2.978119543607e+03 
       1.165672228169e-01       2.889840947035e+03 
       1.205238577990e-01       2.808175960325e+03 
       1.246000324396e-01       2.724898211251e+03 
       1.288018673762e-01       2.632879701703e+03 
       1.331354564579e-01       2.527489094755e+03 
       1.376068811297e-01       2.407704392886e+03 
       1.422222216440e-01       2.276519784742e+03 
       1.469875662779e-01       2.140363504832e+03 
       1.519090196080e-01       2.007562692203e+03 
       1.569927108202e-01       1.886253434233e+03 
       1.622448029797e-01       1.782338215518e+03 
       1.676715041555e-01       1.698034706465e+03 
       1.732790812775e-01       1.631332945594e+03 
       1.790738775864e-01       1.576481158106e+03 
       1.850623345325e-01       1.525522898829e+03 
       1.912510189724e-01       1.470729413220e+03 
       1.976466565162e-01       1.407316616082e+03 
       2.042561718939e-01       1.335304677143e+03 
       2.110867372381e-01       1.259394928514e+03 
       2.181458292433e-01       1.186675308894e+03 
       2.254412962569e-01       1.123265465923e+03 
       2.329814365074e-01       1.071599880906e+03 
       2.407750888929e-01       1.029567292555e+03 
       2.488317380574e-01       9.918168032269e+02 
       2.571616359049e-01       9.527078926576e+02 
       2.657759422666e-01       9.094857791907e+02 
       2.746868881899e-01       8.636723218451e+02 
       2.839079663177e-01       8.195428711090e+02 
       2.934541541482e-01       7.807994161200e+02 
       3.033421777124e-01       7.479924317185e+02 
       3.135908255382e-01       7.185106012871e+02 
       3.242213259012e-01       6.889944240177e+02 
       3.352578046033e-01       6.581743070323e+02 
       3.467278463493e-01       6.275790070345e+02 
       3.586631908941e-01       5.994894124229e+02 
       3.711006065692e-01       5.744300791832e+02 
       3.840830001939e-01       5.508920934373e+02 
       3.976608462875e-01       5.273667058637e+02 
       4.118940540311e-01       5.040565113016e+02 
       4.268544442865e-01       4.820902497103e+02 
       4.426290924830e-01       4.616208514198e+02 
       4.593249258150e-01       4.417537083420e+02 
       4.770751796888e-01       4.221322272034e+02 
       4.960486825933e-01       4.032171139090e+02 
       5.164635725641e-01       3.849938014063e+02 
       5.386081951008e-01       3.669869981214e+02 
       5.628740985192e-01       3.492048298009e+02 
       5.898103418522e-01       3.315881270943e+02 
       6.202173557616e-01       3.138049820627e+02 
       6.553187807001e-01       2.956777237136e+02 
       6.970980644761e-01       2.767818612692e+02 
       7.490105273542e-01       2.565559481551e+02 
       8.176108362037e-01       2.340543012485e+02 
       9.163961201943e-01       2.077799632683e+02 
       1.072841449326e+00       1.760013554637e+02 
       1.321424011992e+00       1.402408791598e+02 
       1.660992890463e+00       1.074089475009e+02 
       2.091018618543e+00       8.002301496423e+01 
       2.632436304691e+00       5.775875771081e+01 
       3.314040958819e+00       4.026483383732e+01 
       4.172130378784e+00       2.712410995729e+01 
       5.252400955169e+00       1.771848140869e+01 
       6.612381035395e+00       1.127759060399e+01 
       8.324494517924e+00       7.028159580643e+00 
       1.047991768896e+01       4.307594469338e+00 
