# Matter power spectrum P(k) at redshift z=0
# for k=2.06173e-07 to 10.3437 h/Mpc,
# number of wavenumbers equal to 139
#    1:k (h/Mpc)              2:P (Mpc/h)^3        
       2.061729496258e-07       1.232392828095e+00 
       2.595563655085e-07       1.537266495754e+00 
       3.267621043316e-07       1.917560881702e+00 
       4.113691167544e-07       2.391933827358e+00 
       5.178830347095e-07       2.983658815426e+00 
       6.519761127328e-07       3.721766802756e+00 
       8.207892962021e-07       4.642470522507e+00 
       1.033312502718e-06       5.790941133647e+00 
       1.300863367996e-06       7.223524380530e+00 
       1.637689951242e-06       9.010504986638e+00 
       2.061729496258e-06       1.123955490024e+01 
       2.595563655085e-06       1.402003455080e+01 
       3.267621043316e-06       1.748835811092e+01 
       4.113691167544e-06       2.181468592811e+01 
       5.178830347095e-06       2.721127233833e+01 
       6.519761127328e-06       3.394287817070e+01 
       8.207892962021e-06       4.233975829557e+01 
       1.033312502718e-05       5.281386042802e+01 
       1.300863367996e-05       6.587902798293e+01 
       1.637689951242e-05       8.217619432660e+01 
       2.061729496258e-05       1.025047969216e+02 
       2.595563655085e-05       1.278619376054e+02 
       3.267621043316e-05       1.594911807213e+02 
       4.113691167544e-05       1.989433248597e+02 
       5.178830347095e-05       2.481520148100e+02 
       6.519761127328e-05       3.095276772843e+02 
       8.207892962021e-05       3.860739454247e+02 
       1.033312502718e-04       4.815314184362e+02 
       1.300863367996e-04       6.005541315805e+02 
       1.637689951242e-04       7.489241813704e+02 
       2.061729496258e-04       9.338089948497e+02 
       2.595563655085e-04       1.164062835449e+03 
       3.267621043316e-04       1.450568104059e+03 
       4.113691167544e-04       1.806601930038e+03 
       5.178830347095e-04       2.248200188765e+03 
       6.519761127328e-04       2.794476669119e+03 
       8.207892962021e-04       3.467832089658e+03 
       1.033312502718e-03       4.293910564342e+03 
       1.300863367996e-03       5.300989524265e+03 
       1.637689951242e-03       6.518414408080e+03 
       2.061729496258e-03       7.973759161710e+03 
       2.595563655085e-03       9.688099026488e+03 
       3.267621043316e-03       1.166907585667e+04 
       4.113691167544e-03       1.390173264848e+04 
       5.178830347095e-03       1.633630844715e+04 
       6.519761127328e-03       1.887409399489e+04 
       8.207892962021e-03       2.135264733243e+04 
       1.033312502718e-02       2.353198030099e+04 
       1.300863367996e-02       2.508872755516e+04 
       1.637689951239e-02       2.563538992689e+04 
       2.061729478737e-02       2.480283675080e+04 
       2.595550534391e-02       2.243867694115e+04 
       3.265829089088e-02       1.891517089599e+04 
       4.054771808627e-02       1.542686713691e+04 
       4.718085133117e-02       1.342695856887e+04 
       5.199471858839e-02       1.242613692400e+04 
       5.596737867636e-02       1.178750056747e+04 
       5.951578167961e-02       1.129558144445e+04 
       6.282601443419e-02       1.086084090018e+04 
       6.599665890161e-02       1.043880510378e+04 
       6.908686349269e-02       1.000631919524e+04 
       7.213549938292e-02       9.552822918240e+03 
       7.516997206050e-02       9.076404806085e+03 
       7.821073448930e-02       8.581502875369e+03 
       8.127379608562e-02       8.077129469066e+03 
       8.437220991316e-02       7.575209905746e+03 
       8.751700068893e-02       7.088929568773e+03 
       9.071776861502e-02       6.631132958903e+03 
       9.398309606516e-02       6.212876971772e+03 
       9.732082941500e-02       5.842244490438e+03 
       1.007382789830e-01       5.523486283181e+03 
       1.042423635938e-01       5.256533617365e+03 
       1.078397166683e-01       5.036831599256e+03 
       1.115367649417e-01       4.855596928116e+03 
       1.153397873052e-01       4.700491046754e+03 
       1.192549589693e-01       4.556871940361e+03 
       1.232883846615e-01       4.409687890904e+03 
       1.274461235847e-01       4.245916325471e+03 
       1.317342082179e-01       4.057152625141e+03 
       1.361586586032e-01       3.841660059856e+03 
       1.407254934763e-01       3.605100392075e+03 
       1.454407394082e-01       3.359432098186e+03 
       1.503104390031e-01       3.120059972011e+03 
       1.553406591170e-01       2.901979865393e+03 
       1.605375000165e-01       2.716023301630e+03 
       1.659071063628e-01       2.566190751609e+03 
       1.714556808880e-01       2.448651695115e+03 
       1.771895016188e-01       2.352647827112e+03 
       1.831149434927e-01       2.263366623546e+03 
       1.892385052078e-01       2.166497859335e+03 
       1.955668421507e-01       2.053299475002e+03 
       2.021068062605e-01       1.924014415918e+03 
       2.088654937191e-01       1.787567725225e+03 
       2.158503014141e-01       1.657247219003e+03 
       2.230689932201e-01       1.544447500447e+03 
       2.305297772881e-01       1.453612392367e+03 
       2.382413957483e-01       1.380646476288e+03 
       2.462132285319e-01       1.315412454737e+03 
       2.544554134361e-01       1.247333577153e+03 
       2.629789851079e-01       1.171368706014e+03 
       2.717960363732e-01       1.090553305550e+03 
       2.809199063191e-01       1.013049185725e+03 
       2.903654008408e-01       9.458408422092e+02 
       3.001490530903e-01       8.898754456210e+02 
       3.102894335623e-01       8.400966712588e+02 
       3.208075226401e-01       7.901059712011e+02 
       3.317271626059e-01       7.375816155866e+02 
       3.430756118686e-01       6.855606176427e+02 
       3.548842321450e-01       6.384547482232e+02 
       3.671893506038e-01       5.972275304935e+02 
       3.800333551335e-01       5.589146164340e+02 
       3.934661044541e-01       5.206203335714e+02 
       4.075467697771e-01       4.828264304643e+02 
       4.223462777546e-01       4.477944546632e+02 
       4.379506066381e-01       4.158190859562e+02 
       4.544653180750e-01       3.851385731373e+02 
       4.720219199100e-01       3.551146127773e+02 
       4.907870134654e-01       3.267493299910e+02 
       5.109758018251e-01       3.000618352675e+02 
       5.328726619497e-01       2.741655459610e+02 
       5.568636098179e-01       2.492144873589e+02 
       5.834897052067e-01       2.252421714010e+02 
       6.135392898193e-01       2.017810066291e+02 
       6.482167209479e-01       1.788069726780e+02 
       6.894725835718e-01       1.559478628141e+02 
       7.407015388064e-01       1.328913986557e+02 
       8.083359112050e-01       1.091521520486e+02 
       9.056102570519e-01       8.427516024710e+01 
       1.059512328769e+00       5.868158105879e+01 
       1.304341927332e+00       3.604684105668e+01 
       1.639407235895e+00       2.089363172500e+01 
       2.063841442838e+00       1.195608960291e+01 
       2.598222254690e+00       6.785508776459e+00 
       3.270968021823e+00       3.822568820301e+00 
       4.117904763839e+00       2.138960685133e+00 
       5.184134950546e+00       1.189555072899e+00 
       6.526439227412e+00       6.578539900073e-01 
       8.216300191920e+00       3.619419744993e-01 
       1.034370910254e+01       1.981932347062e-01 
