# Matter power spectrum P(k) at redshift z=2.5
# for k=1.55093e-07 to 12.3369 h/Mpc,
# number of wavenumbers equal to 141
#    1:k (h/Mpc)              2:P (Mpc/h)^3        
       1.550931846673e-07       5.225544120450e-01 
       1.952507513737e-07       6.518257579954e-01 
       2.458061325763e-07       8.130767029742e-01 
       3.094515866752e-07       1.014218472304e+00 
       3.895764661854e-07       1.265119396722e+00 
       4.904477131178e-07       1.578089068194e+00 
       6.174370892003e-07       1.968482266257e+00 
       7.773072417784e-07       2.455452284615e+00 
       9.785718394465e-07       3.062890616032e+00 
       1.231948955945e-06       3.820599094600e+00 
       1.550931846673e-06       4.765751998356e+00 
       1.952507513737e-06       5.944719828836e+00 
       2.458061325763e-06       7.415344233628e+00 
       3.094515866752e-06       9.249775625345e+00 
       3.895764661854e-06       1.153801263345e+01 
       4.904477131178e-06       1.439231687828e+01 
       6.174370892003e-06       1.795271930124e+01 
       7.773072417784e-06       2.239388753117e+01 
       9.785718394465e-06       2.793368989590e+01 
       1.231948955945e-05       3.484387356632e+01 
       1.550931846673e-05       4.346337554051e+01 
       1.952507513737e-05       5.421490919204e+01 
       2.458061325763e-05       6.762561978576e+01 
       3.094515866752e-05       8.435278218471e+01 
       3.895764661854e-05       1.052157219863e+02 
       4.904477131178e-05       1.312353701846e+02 
       6.174370892003e-05       1.636830834663e+02 
       7.773072417784e-05       2.041405217013e+02 
       9.785718394465e-05       2.545723390373e+02 
       1.231948955945e-04       3.174129625433e+02 
       1.550931846673e-04       3.956673136135e+02 
       1.952507513737e-04       4.930221063282e+02 
       2.458061325763e-04       6.139579438396e+02 
       3.094515866752e-04       7.638410341312e+02 
       3.895764661854e-04       9.489558823166e+02 
       4.904477131178e-04       1.176420051027e+03 
       6.174370892003e-04       1.453913142045e+03 
       7.773072417784e-04       1.789178303672e+03 
       9.785718394465e-04       2.189298197901e+03 
       1.231948955945e-03       2.659635381403e+03 
       1.550931846673e-03       3.201956990176e+03 
       1.952507513737e-03       3.811613200351e+03 
       2.458061325763e-03       4.474859500794e+03 
       3.094515866752e-03       5.166307961873e+03 
       3.895764661854e-03       5.846585510692e+03 
       4.904477131178e-03       6.461863852893e+03 
       6.174370892003e-03       6.945022518549e+03 
       7.773072417784e-03       7.218976717114e+03 
       9.785718394465e-03       7.202650459322e+03 
       1.231948955945e-02       6.823039337984e+03 
       1.550931846291e-02       6.041532991707e+03 
       1.952506818141e-02       4.904117921648e+03 
       2.457865185606e-02       3.602203383362e+03 
       3.082478958289e-02       2.476816800007e+03 
       3.714318864585e-02       1.865014105372e+03 
       4.171253383489e-02       1.644920905776e+03 
       4.528072748577e-02       1.544234221804e+03 
       4.837542608118e-02       1.479399538418e+03 
       5.121465762315e-02       1.422858698075e+03 
       5.390596891890e-02       1.363100264716e+03 
       5.651068730838e-02       1.295261338493e+03 
       5.906762186588e-02       1.218133855290e+03 
       6.160333586270e-02       1.132866177410e+03 
       6.413717865013e-02       1.042163223884e+03 
       6.668398877139e-02       9.496314509967e+02 
       6.925565351381e-02       8.591812569624e+02 
       7.186206110884e-02       7.744981010593e+02 
       7.451170936768e-02       6.986235065550e+02 
       7.721210961964e-02       6.336830633259e+02 
       7.997006325605e-02       5.807684014133e+02 
       8.279185597489e-02       5.399449243719e+02 
       8.568339710507e-02       5.103322472284e+02 
       8.865032121956e-02       4.902073569486e+02 
       9.169806319393e-02       4.771143133712e+02 
       9.483191415023e-02       4.680146590171e+02 
       9.805706338474e-02       4.595497049323e+02 
       1.013786298711e-01       4.484720058792e+02 
       1.048016859435e-01       4.322247554244e+02 
       1.083312751134e-01       4.095303301622e+02 
       1.119724255366e-01       3.807627771022e+02 
       1.157301603602e-01       3.478983909727e+02 
       1.196095059868e-01       3.139893901262e+02 
       1.236154991681e-01       2.823217938887e+02 
       1.277531937606e-01       2.555628642631e+02 
       1.320276679245e-01       2.351746330657e+02 
       1.364440325155e-01       2.211943447710e+02 
       1.410074414010e-01       2.123215869847e+02 
       1.457231044162e-01       2.062421540282e+02 
       1.505963036710e-01       2.002094863439e+02 
       1.556324139084e-01       1.918837508357e+02 
       1.608369276188e-01       1.801925404572e+02 
       1.662154856200e-01       1.657456376597e+02 
       1.717739138295e-01       1.504644154676e+02 
       1.775182669966e-01       1.365874183802e+02 
       1.834548802258e-01       1.256322835380e+02 
       1.895904292209e-01       1.178331814935e+02 
       1.959320003385e-01       1.122019864617e+02 
       2.024871717476e-01       1.071091289020e+02 
       2.092641073011e-01       1.011655271949e+02 
       2.162716651256e-01       9.397730504785e+01 
       2.235195234884e-01       8.624916392985e+01 
       2.310183272222e-01       7.913482948151e+01 
       2.387798589479e-01       7.336787904997e+01 
       2.468172406053e-01       6.882941532213e+01 
       2.551451724846e-01       6.478530871315e+01 
       2.637802192067e-01       6.054809895882e+01 
       2.727411551416e-01       5.601686910363e+01 
       2.820493859057e-01       5.162197779897e+01 
       2.917294683154e-01       4.778292356633e+01 
       3.018097592187e-01       4.448769106484e+01 
       3.123232350698e-01       4.140207522349e+01 
       3.233085406670e-01       3.830464459834e+01 
       3.348113498610e-01       3.529559028174e+01 
       3.468861576554e-01       3.255719663586e+01 
       3.595986792872e-01       3.006899196586e+01 
       3.730291200644e-01       2.768747726048e+01 
       3.872767218381e-01       2.538828636259e+01 
       4.024662276277e-01       2.324145204721e+01 
       4.187573094856e-01       2.123290880240e+01 
       4.363587213531e-01       1.930589949277e+01 
       4.555502645946e-01       1.747124259322e+01 
       4.767182240006e-01       1.572530947293e+01 
       5.004151846560e-01       1.404057162660e+01 
       5.274665384328e-01       1.241176675481e+01 
       5.591724288976e-01       1.081742159683e+01 
       5.977196420416e-01       9.238412933411e+00 
       6.470911340578e-01       7.648159674014e+00 
       7.152073329668e-01       6.017757318185e+00 
       8.186814918562e-01       4.341775382879e+00 
       9.865274189644e-01       2.753853948517e+00 
       1.233933965344e+00       1.583962627568e+00 
       1.553129701062e+00       8.907273052832e-01 
       1.955272068608e+00       4.974129299034e-01 
       2.461541691028e+00       2.761296326346e-01 
       3.098897387026e+00       1.524582692005e-01 
       3.901280669069e+00       8.375785269580e-02 
       4.911421372833e+00       4.580455402839e-02 
       6.183113174288e+00       2.494308896205e-02 
       7.784078299110e+00       1.352951079177e-02 
       9.799573978145e+00       7.311658711800e-03 
       1.233693270584e+01       3.937704750323e-03 
