# Matter power spectrum P(k) at redshift z=0
# for k=2.26201e-07 to 11.3488 h/Mpc,
# number of wavenumbers equal to 139
#    1:k (h/Mpc)              2:P (Mpc/h)^3        
       2.262014669897e-07       7.853776877857e-01 
       2.847707749784e-07       9.796671796603e-01 
       3.585051651567e-07       1.222020688270e+00 
       4.513312626752e-07       1.524328458556e+00 
       5.681923957189e-07       1.901422185454e+00 
       7.153118457588e-07       2.371802679764e+00 
       9.005242599831e-07       2.958547545994e+00 
       1.133692874830e-06       3.690443403790e+00 
       1.427234769293e-06       4.603398200403e+00 
       1.796782119660e-06       5.742202902684e+00 
       2.262014669897e-06       7.162728995342e+00 
       2.847707749784e-06       8.934669589371e+00 
       3.585051651567e-06       1.114495860905e+01 
       4.513312626752e-06       1.390203577394e+01 
       5.681923957189e-06       1.734116655790e+01 
       7.153118457588e-06       2.163107800504e+01 
       9.005242599831e-06       2.698223571291e+01 
       1.133692874830e-05       3.365716756525e+01 
       1.427234769293e-05       4.198333973375e+01 
       1.796782119660e-05       5.236921470979e+01 
       2.262014669897e-05       6.532427536615e+01 
       2.847707749784e-05       8.148398985215e+01 
       3.585051651567e-05       1.016409271484e+02 
       4.513312626752e-05       1.267835202583e+02 
       5.681923957189e-05       1.581443204995e+02 
       7.153118457588e-05       1.972599955296e+02 
       9.005242599831e-05       2.460457896328e+02 
       1.133692874830e-04       3.068876596098e+02 
       1.427234769293e-04       3.827557539740e+02 
       1.796782119660e-04       4.773431678582e+02 
       2.262014669897e-04       5.952337011355e+02 
       2.847707749784e-04       7.421012078432e+02 
       3.585051651567e-04       9.249404206057e+02 
       4.513312626752e-04       1.152324322610e+03 
       5.681923957189e-04       1.434676354350e+03 
       7.153118457588e-04       1.784537606345e+03 
       9.005242599831e-04       2.216795059576e+03 
       1.133692874830e-03       2.748793299211e+03 
       1.427234769293e-03       3.400158211583e+03 
       1.796782119660e-03       4.192109962555e+03 
       2.262014669897e-03       5.146048103574e+03 
       2.847707749784e-03       6.280992729796e+03 
       3.585051651567e-03       7.609552758472e+03 
       4.513312626752e-03       9.132189434740e+03 
       5.681923957189e-03       1.082910923987e+04 
       7.153118457588e-03       1.264992956838e+04 
       9.005242599831e-03       1.450167935200e+04 
       1.133692874830e-02       1.623590035394e+04 
       1.427234769293e-02       1.763943674601e+04 
       1.796782119648e-02       1.844044479002e+04 
       2.262014620172e-02       1.835596791339e+04 
       2.847678584315e-02       1.721962391476e+04 
       3.581786919511e-02       1.519762883154e+04 
       4.423898046454e-02       1.305599952749e+04 
       5.097462727006e-02       1.177175198406e+04 
       5.593776616877e-02       1.105225430629e+04 
       6.008952020814e-02       1.055166845115e+04 
       6.382466019878e-02       1.014558107292e+04 
       6.732378619728e-02       9.779206788658e+03 
       7.068439910129e-02       9.424294172009e+03 
       7.396579689603e-02       9.065660404030e+03 
       7.720734988190e-02       8.696025214797e+03 
       8.043704225921e-02       8.313613593601e+03 
       8.367590002588e-02       7.920752015021e+03 
       8.694047561779e-02       7.522795173473e+03 
       9.024433162527e-02       7.127123503705e+03 
       9.359897219793e-02       6.742130368926e+03 
       9.701445207939e-02       6.376206746618e+03 
       1.004997884711e-01       6.036775607525e+03 
       1.040632474109e-01       5.729442111030e+03 
       1.077125474992e-01       5.457320324352e+03 
       1.114550075211e-01       5.220584495367e+03 
       1.152976549621e-01       5.016285815383e+03 
       1.192473066202e-01       4.838480659480e+03 
       1.233106289066e-01       4.678730567434e+03 
       1.274941831199e-01       4.527031605752e+03 
       1.318044594782e-01       4.373181973361e+03 
       1.362479027099e-01       4.208476225426e+03 
       1.408309313395e-01       4.027440727579e+03 
       1.455599523766e-01       3.829166063438e+03 
       1.504413728164e-01       3.617755922857e+03 
       1.554816091771e-01       3.401578100691e+03 
       1.606870961709e-01       3.191356807608e+03 
       1.660642955297e-01       2.997546068113e+03 
       1.716197059552e-01       2.827680551672e+03 
       1.773598751354e-01       2.684404480712e+03 
       1.832914147472e-01       2.564693798972e+03 
       1.894210193536e-01       2.460559132814e+03 
       1.957554900937e-01       2.361278900110e+03 
       2.023017640622e-01       2.256811234216e+03 
       2.090669502774e-01       2.141389003952e+03 
       2.160583731536e-01       2.015758938610e+03 
       2.232836244327e-01       1.886742595833e+03 
       2.307506245935e-01       1.764029941330e+03 
       2.384676948677e-01       1.655663900890e+03 
       2.464436411548e-01       1.564409347608e+03 
       2.546878513689e-01       1.486717452845e+03 
       2.632104080833e-01       1.414814393610e+03 
       2.720222188009e-01       1.341048288054e+03 
       2.811351667929e-01       1.262223799056e+03 
       2.905622862727e-01       1.181122632826e+03 
       3.003179667583e-01       1.103981701253e+03 
       3.104181929166e-01       1.035726072033e+03 
       3.208808280881e-01       9.765284056336e+02 
       3.317259522328e-01       9.221976997639e+02 
       3.429762684566e-01       8.679790679715e+02 
       3.546575969162e-01       8.125429992811e+02 
       3.667994812820e-01       7.585167922817e+02 
       3.794359418267e-01       7.091482396403e+02 
       3.926064217719e-01       6.647651711567e+02 
       4.063569915803e-01       6.228439210806e+02 
       4.207419022614e-01       5.813176597273e+02 
       4.358256180516e-01       5.408394100715e+02 
       4.516855185481e-01       5.031254635485e+02 
       4.684155532073e-01       4.681176140194e+02 
       4.861312790348e-01       4.343530135496e+02 
       5.049769545626e-01       4.015063054216e+02 
       5.251357723681e-01       3.703741611712e+02 
       5.468450276675e-01       3.407757187112e+02 
       5.704193205548e-01       3.120072147907e+02 
       5.962873589163e-01       2.842419259165e+02 
       6.250528612500e-01       2.573621151324e+02 
       6.576004873025e-01       2.309740590188e+02 
       6.952912328563e-01       2.049771941828e+02 
       7.403485205304e-01       1.789599122565e+02 
       7.966827870966e-01       1.525183232516e+02 
       8.717910972752e-01       1.250662970734e+02 
       9.812184306410e-01       9.607957992699e+01 
       1.155988535427e+00       6.628894676208e+01 
       1.430199112393e+00       4.056746822440e+01 
       1.798682734731e+00       2.365774344758e+01 
       2.264379316430e+00       1.362940548705e+01 
       2.850684581997e+00       7.782502812344e+00 
       3.588799261254e+00       4.408443655305e+00 
       4.518030587821e+00       2.479141854116e+00 
       5.687863518271e+00       1.385016115744e+00 
       7.160595921969e+00       7.691280297656e-01 
       9.014656169756e+00       4.247713723637e-01 
       1.134877973069e+01       2.334101880715e-01 
