# Matter power spectrum P(k) at redshift z=1
# for k=2.07276e-07 to 10.399 h/Mpc,
# number of wavenumbers equal to 139
#    1:k (h/Mpc)              2:P (Mpc/h)^3        
       2.072758148750e-07       3.553322909805e-01 
       2.609447905965e-07       4.432356415721e-01 
       3.285100279573e-07       5.528848316436e-01 
       4.135696222246e-07       6.896594232195e-01 
       5.206533069647e-07       8.602697929017e-01 
       6.554636788726e-07       1.073086353446e+00 
       8.251798818408e-07       1.338550218689e+00 
       1.038839922551e-06       1.669685460047e+00 
       1.307821977285e-06       2.082738085589e+00 
       1.646450321307e-06       2.597973090995e+00 
       2.072758148750e-06       3.240668682745e+00 
       2.609447905965e-06       4.042356449813e+00 
       3.285100279573e-06       5.042368319696e+00 
       4.135696222246e-06       6.289766176686e+00 
       5.206533069647e-06       7.845748782690e+00 
       6.554636788726e-06       9.786654022717e+00 
       8.251798818408e-06       1.220770364041e+01 
       1.038839922551e-05       1.522767393933e+01 
       1.307821977285e-05       1.899472110729e+01 
       1.646450321307e-05       2.369364597065e+01 
       2.072758148750e-05       2.955495268114e+01 
       2.609447905965e-05       3.686614191584e+01 
       3.285100279573e-05       4.598578511142e+01 
       4.135696222246e-05       5.736105528917e+01 
       5.206533069647e-05       7.154954508609e+01 
       6.554636788726e-05       8.924638441756e+01 
       8.251798818408e-05       1.113178739723e+02 
       1.038839922551e-04       1.388430609094e+02 
       1.307821977285e-04       1.731648599076e+02 
       1.646450321307e-04       2.159523825323e+02 
       2.072758148750e-04       2.692759173894e+02 
       2.609447905965e-04       3.356952117914e+02 
       3.285100279573e-04       4.183598880417e+02 
       4.135696222246e-04       5.211174293855e+02 
       5.206533069647e-04       6.486189183062e+02 
       6.554636788726e-04       8.064064771105e+02 
       8.251798818408e-04       1.000961425792e+03 
       1.038839922551e-03       1.239686275534e+03 
       1.307821977285e-03       1.530762462484e+03 
       1.646450321307e-03       1.882739772306e+03 
       2.072758148750e-03       2.303684716893e+03 
       2.609447905965e-03       2.799840595487e+03 
       3.285100279573e-03       3.373657527822e+03 
       4.135696222246e-03       4.021145910197e+03 
       5.206533069647e-03       4.728434201308e+03 
       6.554636788726e-03       5.467788247173e+03 
       8.251798818408e-03       6.193535795424e+03 
       1.038839922551e-02       6.838442131675e+03 
       1.307821977285e-02       7.312497968707e+03 
       1.646450321302e-02       7.508714798230e+03 
       2.072758120182e-02       7.325843525388e+03 
       2.609429006668e-02       6.721177268460e+03 
       3.282766912569e-02       5.791212422223e+03 
       4.065710971713e-02       4.856415534591e+03 
       4.707161655632e-02       4.306300480264e+03 
       5.176055914551e-02       4.008429664157e+03 
       5.565719493866e-02       3.804571299876e+03 
       5.915056608930e-02       3.640098246972e+03 
       6.241648246536e-02       3.492006608093e+03 
       6.554898258613e-02       3.348957227544e+03 
       6.860487913978e-02       3.205202960929e+03 
       7.162170281354e-02       3.058276928370e+03 
       7.462602340616e-02       2.907906935937e+03 
       7.763773795182e-02       2.755369045231e+03 
       8.067246590375e-02       2.602996064042e+03 
       8.374297422106e-02       2.453736806845e+03 
       8.686006932711e-02       2.310736246329e+03 
       9.003317893590e-02       2.176942481960e+03 
       9.327074472685e-02       2.054759607121e+03 
       9.658049492882e-02       1.945767532050e+03 
       9.996963797064e-02       1.850525372658e+03 
       1.034450026518e-01       1.768469005367e+03 
       1.070131410957e-01       1.697913167303e+03 
       1.106804051870e-01       1.636172309692e+03 
       1.144530037278e-01       1.579820071925e+03 
       1.183370453452e-01       1.525100643542e+03 
       1.223385707442e-01       1.468478403010e+03 
       1.264635769578e-01       1.407258867608e+03 
       1.307180356190e-01       1.340151415742e+03 
       1.351079068603e-01       1.267604711727e+03 
       1.396391501695e-01       1.191766034562e+03 
       1.443177333485e-01       1.116010960418e+03 
       1.491496406018e-01       1.044130089424e+03 
       1.541408807089e-01       9.793831122980e+02 
       1.592974961847e-01       9.236746074845e+02 
       1.646255743051e-01       8.770638216856e+02 
       1.701312608556e-01       8.377366821939e+02 
       1.758207774463e-01       8.024881804301e+02 
       1.817004432324e-01       7.676698920708e+02 
       1.877767018713e-01       7.303936851559e+02 
       1.940561545541e-01       6.895735812625e+02 
       2.005455999608e-01       6.463035951373e+02 
       2.072520820247e-01       6.032962950972e+02 
       2.141829464489e-01       5.635911333338e+02 
       2.213459070160e-01       5.291552586360e+02 
       2.287491228815e-01       5.000474627680e+02 
       2.364012882609e-01       4.745234637984e+02 
       2.443117362207e-01       4.500390381050e+02 
       2.524905587083e-01       4.246715934785e+02 
       2.609487455142e-01       3.981508548896e+02 
       2.696983456147e-01       3.718028458746e+02 
       2.787526553331e-01       3.474326061234e+02 
       2.881264390757e-01       3.259822359802e+02 
       2.978361901354e-01       3.069536031409e+02 
       3.079004413794e-01       2.889728760541e+02 
       3.183401387515e-01       2.709908066463e+02 
       3.291790947517e-01       2.530721506324e+02 
       3.404445448642e-01       2.360731758093e+02 
       3.521678379935e-01       2.206088983901e+02 
       3.643853033894e-01       2.064353577028e+02 
       3.771393529341e-01       1.928573836162e+02 
       3.904799015904e-01       1.795764674610e+02 
       4.044662244005e-01       1.668946580053e+02 
       4.191694224396e-01       1.550991231641e+02 
       4.346757539650e-01       1.440090830304e+02 
       4.510912203658e-01       1.333255049887e+02 
       4.685480145240e-01       1.230766327948e+02 
       4.872138066244e-01       1.133804011899e+02 
       5.073054832283e-01       1.041167868557e+02 
       5.291101169344e-01       9.517579104702e+01 
       5.530181435304e-01       8.658258235270e+01 
       5.795781014564e-01       7.826151389191e+01 
       6.095915087007e-01       7.013781218741e+01 
       6.442871458530e-01       6.215142449632e+01 
       6.856637804011e-01       5.419611681790e+01 
       7.372183109025e-01       4.614695617378e+01 
       8.056160455014e-01       3.783568032794e+01 
       9.046268342149e-01       2.910386190736e+01 
       1.062053760221e+00       2.013930488592e+01 
       1.310862468439e+00       1.232089366565e+01 
       1.648155475551e+00       7.149223869914e+00 
       2.074868808108e+00       4.097830452332e+00 
       2.612104951210e+00       2.329146579137e+00 
       3.288445301299e+00       1.313869014574e+00 
       4.139907355100e+00       7.360790048468e-01 
       5.211834571809e+00       4.098092831067e-01 
       6.561310984518e+00       2.268612880954e-01 
       8.260201133094e+00       1.249304875914e-01 
       1.039897711298e+01       6.846816348112e-02 
