# Matter power spectrum P(k) at redshift z=0
# for k=2.01553e-07 to 10.1122 h/Mpc,
# number of wavenumbers equal to 139
#    1:k (h/Mpc)              2:P (Mpc/h)^3        
       2.015528801070e-07       1.345247545959e+00 
       2.537400425870e-07       1.678039610151e+00 
       3.194397876025e-07       2.093158943523e+00 
       4.021508661509e-07       2.610971954207e+00 
       5.062779447724e-07       3.256883362605e+00 
       6.373661701049e-07       4.062582596150e+00 
       8.023964681630e-07       5.067598519762e+00 
       1.010157304104e-06       6.321238779360e+00 
       1.271712700046e-06       7.885008902566e+00 
       1.600991434590e-06       9.835629837221e+00 
       2.015528801070e-06       1.226880196257e+01 
       2.537400425870e-06       1.530390022305e+01 
       3.194397876025e-06       1.908983069802e+01 
       4.021508661509e-06       2.381233586434e+01 
       5.062779447724e-06       2.970310681415e+01 
       6.373661701049e-06       3.705114919777e+01 
       8.023964681630e-06       4.621695994630e+01 
       1.010157304104e-05       5.765020917995e+01 
       1.271712700046e-05       7.191179254674e+01 
       1.600991434590e-05       8.970133150851e+01 
       2.015528801070e-05       1.118914620090e+02 
       2.537400425870e-05       1.395705764997e+02 
       3.194397876025e-05       1.740960821785e+02 
       4.021508661509e-05       2.171607210159e+02 
       5.062779447724e-05       2.708750726308e+02 
       6.373661701049e-05       3.378700266329e+02 
       8.023964681630e-05       4.214237399377e+02 
       1.010157304104e-04       5.256183084406e+02 
       1.271712700046e-04       6.555319034151e+02 
       1.600991434590e-04       8.174720922129e+02 
       2.015528801070e-04       1.019254824455e+03 
       2.537400425870e-04       1.270530063854e+03 
       3.194397876025e-04       1.583147915720e+03 
       4.021508661509e-04       1.971547364460e+03 
       5.062779447724e-04       2.453134388328e+03 
       6.373661701049e-04       3.048600156270e+03 
       8.023964681630e-04       3.782104974238e+03 
       1.010157304104e-03       4.681167462346e+03 
       1.271712700046e-03       5.775904308270e+03 
       1.600991434590e-03       7.097186292055e+03 
       2.015528801070e-03       8.673371148762e+03 
       2.537400425870e-03       1.052495823608e+04 
       3.194397876025e-03       1.265689111804e+04 
       4.021508661509e-03       1.504858290008e+04 
       5.062779447724e-03       1.764079367230e+04 
       6.373661701049e-03       2.032083385308e+04 
       8.023964681630e-03       2.290751832927e+04 
       1.010157304104e-02       2.513764433732e+04 
       1.271712700046e-02       2.666149955413e+04 
       1.600991434588e-02       2.706584714610e+04 
       2.015528788805e-02       2.596570092765e+04 
       2.537390424378e-02       2.322135746237e+04 
       3.192933760256e-02       1.926957959265e+04 
       3.970275617920e-02       1.541728504281e+04 
       4.635875145802e-02       1.323567940584e+04 
       5.116869028827e-02       1.218994162934e+04 
       5.511869674594e-02       1.154754405723e+04 
       5.863773808378e-02       1.106478698032e+04 
       6.191565480794e-02       1.064216099983e+04 
       6.505234978101e-02       1.023064867940e+04 
       6.810747923052e-02       9.804820097736e+03 
       7.112010805596e-02       9.353123925568e+03 
       7.411770040280e-02       8.873556425483e+03 
       7.712070514764e-02       8.371149080813e+03 
       8.014509679154e-02       7.856013616012e+03 
       8.320387769119e-02       7.341493262714e+03 
       8.630801349306e-02       6.842313285667e+03 
       8.946704075731e-02       6.372794590718e+03 
       9.268947561995e-02       5.945255827014e+03 
       9.598309666139e-02       5.568729414037e+03 
       9.935514539236e-02       5.248064320824e+03 
       1.028124711007e-01       4.983425963084e+03 
       1.063616370872e-01       4.770167068404e+03 
       1.100089994594e-01       4.599065815538e+03 
       1.137607660139e-01       4.456998994656e+03 
       1.176230404262e-01       4.328193419894e+03 
       1.216018554657e-01       4.196182989765e+03 
       1.257031979685e-01       4.046418906950e+03 
       1.299330276439e-01       3.869140136725e+03 
       1.342972913577e-01       3.661748182925e+03 
       1.388019342410e-01       3.429783294022e+03 
       1.434529087858e-01       3.185870155584e+03 
       1.482561829637e-01       2.946675801934e+03 
       1.532177483237e-01       2.728700035021e+03 
       1.583436289785e-01       2.544148831404e+03 
       1.636398923547e-01       2.397994888507e+03 
       1.691126625643e-01       2.286815670092e+03 
       1.747681372428e-01       2.199596409436e+03 
       1.806126086885e-01       2.120576882743e+03 
       1.866524901338e-01       2.033977989825e+03 
       1.928943479836e-01       1.929534035088e+03 
       1.993449408661e-01       1.806539859485e+03 
       2.060112663730e-01       1.673975214187e+03 
       2.129006164229e-01       1.546109950989e+03 
       2.200206422732e-01       1.435730242351e+03 
       2.273794303494e-01       1.348455948993e+03 
       2.349855902669e-01       1.280687641876e+03 
       2.428483567184e-01       1.221899264669e+03 
       2.509777072984e-01       1.160410906378e+03 
       2.593844988843e-01       1.089987697483e+03 
       2.680806259185e-01       1.013147931825e+03 
       2.770792048956e-01       9.385110765543e+02 
       2.863947906327e-01       8.740748175934e+02 
       2.960436315785e-01       8.215977041101e+02 
       3.060439736641e-01       7.760828888375e+02 
       3.164164252008e-01       7.304558750148e+02 
       3.271843994102e-01       6.816162750974e+02 
       3.383746567626e-01       6.324474056278e+02 
       3.500179770701e-01       5.879001696954e+02 
       3.621500022421e-01       5.495286359438e+02 
       3.748123063014e-01       5.143848594329e+02 
       3.880537721315e-01       4.790892762353e+02 
       4.019323883595e-01       4.438206636061e+02 
       4.165176311731e-01       4.110920097318e+02 
       4.318936754223e-01       3.815490041695e+02 
       4.481638055483e-01       3.533423168010e+02 
       4.654566025074e-01       3.255595276657e+02 
       4.839348281847e-01       2.992796772434e+02 
       5.038085286167e-01       2.747223784428e+02 
       5.253549596993e-01       2.508986301623e+02 
       5.489499782188e-01       2.279053283816e+02 
       5.751195759639e-01       2.059027322019e+02 
       6.046286763518e-01       1.843730420585e+02 
       6.386431193536e-01       1.633299786516e+02 
       6.790456361412e-01       1.424269818704e+02 
       7.291012129255e-01       1.213918521106e+02 
       7.949717289554e-01       9.978587061000e+01 
       8.892980299746e-01       7.719568636223e+01 
       1.038004371537e+00       5.394403347282e+01 
       1.275493309079e+00       3.321056203807e+01 
       1.602717033626e+00       1.922203806626e+01 
       2.017640166603e+00       1.097910767966e+01 
       2.540058234817e+00       6.220525586840e+00 
       3.197743859110e+00       3.498949967025e+00 
       4.025721004642e+00       1.955171319858e+00 
       5.068082473537e+00       1.085976398568e+00 
       6.380337815005e+00       5.998829529195e-01 
       8.032369411140e+00       3.296995801286e-01 
       1.011215396860e+01       1.803626468019e-01 
