# Matter power spectrum P(k) at redshift z=1.5
# for k=2.04517e-07 to 10.2607 h/Mpc,
# number of wavenumbers equal to 139
#    1:k (h/Mpc)              2:P (Mpc/h)^3        
       2.045169608391e-07       2.471730969781e-01 
       2.574715991432e-07       3.083196461179e-01 
       3.241375389767e-07       3.845928432477e-01 
       4.080649847342e-07       4.797347715926e-01 
       5.137233789453e-07       5.984132438399e-01 
       6.467394163870e-07       7.464508122962e-01 
       8.141966860985e-07       9.311104319736e-01 
       1.025012898328e-06       1.161451792058e+00 
       1.290414785122e-06       1.448775796371e+00 
       1.624535964745e-06       1.807179002044e+00 
       2.045169608391e-06       2.254245211300e+00 
       2.574715991432e-06       2.811908149037e+00 
       3.241375389767e-06       3.507527543013e+00 
       4.080649847342e-06       4.375231389805e+00 
       5.137233789453e-06       5.457590235125e+00 
       6.467394163870e-06       6.807705572923e+00 
       8.141966860985e-06       8.491814733350e+00 
       1.025012898328e-05       1.059253988013e+01 
       1.290414785122e-05       1.321294020039e+01 
       1.624535964745e-05       1.648156538751e+01 
       2.045169608391e-05       2.055875705677e+01 
       2.574715991432e-05       2.564450459101e+01 
       3.241375389767e-05       3.198823567742e+01 
       4.080649847342e-05       3.990101160788e+01 
       5.137233789453e-05       4.977070547845e+01 
       6.467394163870e-05       6.208086802366e+01 
       8.141966860985e-05       7.743412837752e+01 
       1.025012898328e-04       9.658112373311e+01 
       1.290414785122e-04       1.204560764615e+02 
       1.624535964745e-04       1.502201798550e+02 
       2.045169608391e-04       1.873137989412e+02 
       2.574715991432e-04       2.335179280167e+02 
       3.241375389767e-04       2.910240252938e+02 
       4.080649847342e-04       3.625087997803e+02 
       5.137233789453e-04       4.512063931635e+02 
       6.467394163870e-04       5.609650957944e+02 
       8.141966860985e-04       6.962713110302e+02 
       1.025012898328e-03       8.622215037540e+02 
       1.290414785122e-03       1.064411628447e+03 
       1.624535964745e-03       1.308657923581e+03 
       2.045169608391e-03       1.600394955807e+03 
       2.574715991432e-03       1.943700568769e+03 
       3.241375389767e-03       2.339943948653e+03 
       4.080649847342e-03       2.785954676211e+03 
       5.137233789453e-03       3.271732210058e+03 
       6.467394163870e-03       3.777907792129e+03 
       8.141966860985e-03       4.273303740478e+03 
       1.025012898328e-02       4.713066637324e+03 
       1.290414785122e-02       5.038625515325e+03 
       1.624535964737e-02       5.182220538897e+03 
       2.045169570733e-02       5.081604220732e+03 
       2.574692869807e-02       4.711813142050e+03 
       3.238688923399e-02       4.131583026694e+03 
       4.004470700930e-02       3.536025741459e+03 
       4.622501131266e-02       3.169907319024e+03 
       5.076470359951e-02       2.956061584390e+03 
       5.455281911371e-02       2.800822263436e+03 
       5.795630950675e-02       2.671349948701e+03 
       6.114226456546e-02       2.553839131503e+03 
       6.420057452935e-02       2.441625106021e+03 
       6.718577071577e-02       2.331452912908e+03 
       7.013398939324e-02       2.222010491601e+03 
       7.307087685437e-02       2.113218104701e+03 
       7.601567813539e-02       2.005801868933e+03 
       7.898352733026e-02       1.900981253537e+03 
       8.198681336726e-02       1.800205910020e+03 
       8.503603641280e-02       1.704922415292e+03 
       8.814036734661e-02       1.616369612585e+03 
       9.130802582151e-02       1.535408872830e+03 
       9.454654297170e-02       1.462398343061e+03 
       9.786294820379e-02       1.397119782856e+03 
       1.012639044925e-01       1.338765830269e+03 
       1.047558078042e-01       1.285996014021e+03 
       1.083448609387e-01       1.237068220909e+03 
       1.120371287589e-01       1.190047342246e+03 
       1.158385796534e-01       1.143078791393e+03 
       1.197551167061e-01       1.094693596084e+03 
       1.237926011307e-01       1.044086715404e+03 
       1.279568699328e-01       9.912943832704e+02 
       1.322537493531e-01       9.372030885121e+02 
       1.366890653847e-01       8.833582975338e+02 
       1.412686524774e-01       8.315994879464e+02 
       1.459983614307e-01       7.836050105634e+02 
       1.508840674050e-01       7.404645671068e+02 
       1.559316789331e-01       7.023939701572e+02 
       1.611471487910e-01       6.686754134888e+02 
       1.665364875617e-01       6.378582823159e+02 
       1.721057807207e-01       6.081948046951e+02 
       1.778612100601e-01       5.782042164755e+02 
       1.838090802647e-01       5.471763049265e+02 
       1.899558514597e-01       5.153964038249e+02 
       1.963081785611e-01       4.839606777600e+02 
       2.028729582958e-01       4.542408358734e+02 
       2.096573848163e-01       4.272437336519e+02 
       2.166690149328e-01       4.031716725641e+02 
       2.239158441346e-01       3.813909498405e+02 
       2.314063947861e-01       3.608199702800e+02 
       2.391498181885e-01       3.405343337476e+02 
       2.471560126088e-01       3.202455091741e+02 
       2.554357599377e-01       3.003562305732e+02 
       2.640008843803e-01       2.815667017264e+02 
       2.728644375644e-01       2.643279283777e+02 
       2.820409157510e-01       2.485436465416e+02 
       2.915465165546e-01       2.337171185322e+02 
       3.013994448722e-01       2.193864583312e+02 
       3.116202808082e-01       2.054623382935e+02 
       3.222324265655e-01       1.921832327474e+02 
       3.332626550323e-01       1.797783169271e+02 
       3.447417908035e-01       1.682101856194e+02 
       3.567055657073e-01       1.572485927798e+02 
       3.691957071680e-01       1.467375917435e+02 
       3.822613414984e-01       1.367121059629e+02 
       3.959608295800e-01       1.272508683491e+02 
       4.103642061185e-01       1.183147661052e+02 
       4.255564771237e-01       1.097983799757e+02 
       4.416421631767e-01       1.016642049863e+02 
       4.587516935697e-01       9.392416680614e+01 
       4.770506234904e-01       8.654405919023e+01 
       4.967532875517e-01       7.946774463087e+01 
       5.181436670453e-01       7.267097958292e+01 
       5.416084569045e-01       6.612062721484e+01 
       5.676917236918e-01       5.976785942161e+01 
       5.971898465513e-01       5.356835626859e+01 
       6.313263634743e-01       4.746203026401e+01 
       6.720968239343e-01       4.137448833716e+01 
       7.230038297904e-01       3.520626277555e+01 
       7.907476308620e-01       2.882697311293e+01 
       8.892022259439e-01       2.211623178556e+01 
       1.046186563708e+00       1.524014540807e+01 
       1.293203683313e+00       9.298423647772e+00 
       1.626234353736e+00       5.396919390565e+00 
       2.047278861562e+00       3.095254707469e+00 
       2.577371296226e+00       1.760212778718e+00 
       3.244718220412e+00       9.933878779495e-01 
       4.084858221789e+00       5.567582622565e-01 
       5.142531818986e+00       3.100851197152e-01 
       6.474063987882e+00       1.717122358643e-01 
       8.150363671926e+00       9.458866070460e-02 
       1.026069994195e+01       5.185382941541e-02 
