# Matter power spectrum P(k) at redshift z=0.5
# for k=2.09985e-07 to 10.5349 h/Mpc,
# number of wavenumbers equal to 139
#    1:k (h/Mpc)              2:P (Mpc/h)^3        
       2.099852542725e-07       8.073525705428e-01 
       2.643557727057e-07       1.004230094626e+00 
       3.328042000137e-07       1.249117324129e+00 
       4.189756645491e-07       1.553721698801e+00 
       5.274591110242e-07       1.932605583637e+00 
       6.640316785508e-07       2.403882458140e+00 
       8.359663543639e-07       2.990082874939e+00 
       1.052419286914e-06       3.719231585984e+00 
       1.324917384158e-06       4.626187330122e+00 
       1.667972163444e-06       5.754309332087e+00 
       2.099852542725e-06       7.157530177586e+00 
       2.643557727057e-06       8.902934155909e+00 
       3.328042000137e-06       1.107396431559e+01 
       4.189756645491e-06       1.377441151762e+01 
       5.274591110242e-06       1.713337612033e+01 
       6.640316785508e-06       2.131143936555e+01 
       8.359663543639e-06       2.650833922638e+01 
       1.052419286914e-05       3.297251712538e+01 
       1.324917384158e-05       4.101299087991e+01 
       1.667972163444e-05       5.101411933964e+01 
       2.099852542725e-05       6.345396043892e+01 
       2.643557727057e-05       7.892709208107e+01 
       3.328042000137e-05       9.817297070382e+01 
       4.189756645491e-05       1.221111514302e+02 
       5.274591110242e-05       1.518849910168e+02 
       6.640316785508e-05       1.889157999714e+02 
       8.359663543639e-05       2.349697920510e+02 
       1.052419286914e-04       2.922405620087e+02 
       1.324917384158e-04       3.634501234196e+02 
       1.667972163444e-04       4.519715860910e+02 
       2.099852542725e-04       5.619760240596e+02 
       2.643557727057e-04       6.986044315295e+02 
       3.328042000137e-04       8.681620927175e+02 
       4.189756645491e-04       1.078326405119e+03 
       5.274591110242e-04       1.338350227360e+03 
       6.640316785508e-04       1.659233173150e+03 
       8.359663543639e-04       2.053824287175e+03 
       1.052419286914e-03       2.536794953169e+03 
       1.324917384158e-03       3.124330311857e+03 
       1.667972163444e-03       3.833258272083e+03 
       2.099852542725e-03       4.679401328034e+03 
       2.643557727057e-03       5.674935617400e+03 
       3.328042000137e-03       6.824445570208e+03 
       4.189756645491e-03       8.119711162624e+03 
       5.274591110242e-03       9.532703168406e+03 
       6.640316785508e-03       1.100736693909e+04 
       8.359663543639e-03       1.245091502653e+04 
       1.052419286914e-02       1.372549512478e+04 
       1.324917384158e-02       1.464431925841e+04 
       1.667972163441e-02       1.498219091272e+04 
       2.099852522603e-02       1.452267129627e+04 
       2.643543114741e-02       1.317267944983e+04 
       3.326095617857e-02       1.114199104079e+04 
       4.127190876892e-02       9.123043240210e+03 
       4.796358199248e-02       7.962055371611e+03 
       5.282811062508e-02       7.374137952014e+03 
       5.684959027442e-02       6.996023065921e+03 
       6.044491625544e-02       6.704008190496e+03 
       6.380072315273e-02       6.446273458060e+03 
       6.701611988915e-02       6.196889368296e+03 
       7.015067290859e-02       5.942213777684e+03 
       7.324357856948e-02       5.675875328867e+03 
       7.632249987421e-02       5.396506990867e+03 
       7.940809940285e-02       5.106434008118e+03 
       8.251656223917e-02       4.810667456332e+03 
       8.566109282615e-02       4.515962610097e+03 
       8.885284970338e-02       4.229877082393e+03 
       9.210155409468e-02       3.959849816635e+03 
       9.541590000702e-02       3.712358864164e+03 
       9.880383854538e-02       3.492219798454e+03 
       1.022727796858e-01       3.302069156476e+03 
       1.058297382038e-01       3.142051236338e+03 
       1.094814407880e-01       3.009713002910e+03 
       1.132344055307e-01       2.900119950785e+03 
       1.170950013511e-01       2.806233587965e+03 
       1.210694925984e-01       2.719616777505e+03 
       1.251640725789e-01       2.631512463225e+03 
       1.293848887637e-01       2.534246054063e+03 
       1.337380617773e-01       2.422732976875e+03 
       1.382296998316e-01       2.295702325076e+03 
       1.428659099776e-01       2.156183331182e+03 
       1.476528073574e-01       2.010940875889e+03 
       1.525965235142e-01       1.868879820084e+03 
       1.577032147409e-01       1.738823381420e+03 
       1.629790713953e-01       1.627298550142e+03 
       1.684303290827e-01       1.536917000127e+03 
       1.740632825854e-01       1.465712740614e+03 
       1.798843034042e-01       1.407593171380e+03 
       1.858998617714e-01       1.353953824722e+03 
       1.921165539882e-01       1.296306812720e+03 
       1.985411359437e-01       1.229268876665e+03 
       2.051805636852e-01       1.152665850494e+03 
       2.120420419452e-01       1.071506866110e+03 
       2.191330815862e-01       9.935667927772e+02 
       2.264615670266e-01       9.257203985650e+02 
       2.340358348559e-01       8.708671612034e+02 
       2.418647650724e-01       8.268444823668e+02 
       2.499578866782e-01       7.877654333544e+02 
       2.583254997937e-01       7.472673029686e+02 
       2.669788170203e-01       7.021114985264e+02 
       2.759301275384e-01       6.538683520526e+02 
       2.851929884355e-01       6.073381534345e+02 
       2.947824490813e-01       5.668290665520e+02 
       3.047153161317e-01       5.331266613737e+02 
       3.150104690820e-01       5.033277478639e+02 
       3.256892394395e-01       4.735306204181e+02 
       3.367758708516e-01       4.421609203690e+02 
       3.482980833867e-01       4.109355032064e+02 
       3.602877733107e-01       3.825757561343e+02 
       3.727818912079e-01       3.578086489383e+02 
       3.858235577813e-01       3.348962886579e+02 
       3.994635007213e-01       3.119982784358e+02 
       4.137619317704e-01       2.893150018255e+02 
       4.287910372940e-01       2.682529616487e+02 
       4.446383396753e-01       2.490778553808e+02 
       4.614113203007e-01       2.307110548376e+02 
       4.792439127494e-01       2.126981852491e+02 
       4.983058413621e-01       1.956626736261e+02 
       5.188164184761e-01       1.796631696864e+02 
       5.410655679402e-01       1.641332932908e+02 
       5.654470234190e-01       1.491558365152e+02 
       5.925129792971e-01       1.347780349410e+02 
       6.230685626471e-01       1.206994517522e+02 
       6.583448294798e-01       1.069149818675e+02 
       7.003377206062e-01       9.319641079517e+01 
       7.525253248174e-01       7.935818565280e+01 
       8.215076438420e-01       6.510737481298e+01 
       9.208782713827e-01       5.017614888966e+01 
       1.078294395924e+00       3.483821227007e+01 
       1.328333304015e+00       2.133916380807e+01 
       1.669710218386e+00       1.234630709468e+01 
       2.101993697970e+00       7.052702422388e+00 
       2.646253114374e+00       3.995303456496e+00 
       3.331435291641e+00       2.246377595440e+00 
       4.194028546394e+00       1.254454715038e+00 
       5.279969114846e+00       6.961942012693e-01 
       6.647087292168e+00       3.841863006364e-01 
       8.368187106525e+00       2.109084218119e-01 
       1.053492339905e+01       1.152301149756e-01 
