# Matter power spectrum P(k) at redshift z=1
# for k=2.08557e-07 to 10.4632 h/Mpc,
# number of wavenumbers equal to 139
#    1:k (h/Mpc)              2:P (Mpc/h)^3        
       2.085568442948e-07       4.415285627627e-01 
       2.625575110863e-07       5.507554498862e-01 
       3.305403227639e-07       6.870032678495e-01 
       4.161256119502e-07       8.569565492193e-01 
       5.238711073824e-07       1.068953469450e+00 
       6.595146495885e-07       1.333394930352e+00 
       8.302797518175e-07       1.663254844358e+00 
       1.045260278461e-06       2.074716653605e+00 
       1.315904726494e-06       2.587967312270e+00 
       1.656625899683e-06       3.228187685449e+00 
       2.085568442948e-06       4.026787951212e+00 
       2.625575110863e-06       5.022948611771e+00 
       3.305403227639e-06       6.265542710534e+00 
       4.161256119502e-06       7.815533537108e+00 
       5.238711073824e-06       9.748965419919e+00 
       6.595146495885e-06       1.216069425966e+01 
       8.302797518175e-06       1.516904067268e+01 
       1.045260278461e-05       1.892159372832e+01 
       1.315904726494e-05       2.360244941927e+01 
       1.656625899683e-05       2.944123777852e+01 
       2.085568442948e-05       3.672437918586e+01 
       2.625575110863e-05       4.580911739274e+01 
       3.305403227639e-05       5.714100852716e+01 
       4.161256119502e-05       7.127570581457e+01 
       5.238711073824e-05       8.890607277620e+01 
       6.595146495885e-05       1.108958840479e+02 
       8.302797518175e-05       1.383216275745e+02 
       1.045260278461e-04       1.725241851128e+02 
       1.315904726494e-04       2.151723922541e+02 
       1.656625899683e-04       2.683405618584e+02 
       2.085568442948e-04       3.346017965629e+02 
       2.625575110863e-04       4.171379605754e+02 
       3.305403227639e-04       5.198649705059e+02 
       4.161256119502e-04       6.475679160164e+02 
       5.238711073824e-04       8.060340859677e+02 
       6.595146495885e-04       1.002164300926e+03 
       8.302797518175e-04       1.244036805695e+03 
       1.045260278461e-03       1.540890629367e+03 
       1.315904726494e-03       1.902957021195e+03 
       1.656625899683e-03       2.340961527650e+03 
       2.085568442948e-03       2.865080334775e+03 
       2.625575110863e-03       3.483284735161e+03 
       3.305403227639e-03       4.198893784380e+03 
       4.161256119502e-03       5.007279868320e+03 
       5.238711073824e-03       5.891506622702e+03 
       6.595146495885e-03       6.817217542085e+03 
       8.302797518175e-03       7.727272592166e+03 
       1.045260278461e-02       8.536743988616e+03 
       1.315904726494e-02       9.130774549750e+03 
       1.656625899679e-02       9.371310261498e+03 
       2.085568418601e-02       9.125959683220e+03 
       2.625558302837e-02       8.337066669817e+03 
       3.303254722146e-02       7.129108151995e+03 
       4.094732982616e-02       5.919198329967e+03 
       4.748903617161e-02       5.215822608636e+03 
       5.225849228306e-02       4.847322677224e+03 
       5.621262506732e-02       4.602444600397e+03 
       5.975307757904e-02       4.408674932062e+03 
       6.306057309655e-02       4.235507312163e+03 
       6.623145938245e-02       4.067774763978e+03 
       6.932380656190e-02       3.897644668759e+03 
       7.237590749875e-02       3.721617926964e+03 
       7.541483309327e-02       3.539144588467e+03 
       7.846083182465e-02       3.351808276492e+03 
       8.152978317026e-02       3.162700817572e+03 
       8.463465545556e-02       2.975847763454e+03 
       8.778641736419e-02       2.795646622580e+03 
       9.099463200725e-02       2.626328523941e+03 
       9.426785757611e-02       2.471473485797e+03 
       9.761392530152e-02       2.333611617890e+03 
       1.010401368282e-01       2.213934320337e+03 
       1.045534070263e-01       2.112127800304e+03 
       1.081603688549e-01       2.026337705123e+03 
       1.118674511992e-01       1.953279899132e+03 
       1.156809370694e-01       1.888524775185e+03 
       1.196070072856e-01       1.826986592168e+03 
       1.236517733163e-01       1.763623288121e+03 
       1.278213019681e-01       1.694286106262e+03 
       1.321216339869e-01       1.616562535779e+03 
       1.365587982028e-01       1.530377547334e+03 
       1.411388225677e-01       1.438113240928e+03 
       1.458677432493e-01       1.344116567199e+03 
       1.507516128217e-01       1.253662708411e+03 
       1.557965085193e-01       1.171641199877e+03 
       1.610085414701e-01       1.101327243237e+03 
       1.663938677949e-01       1.043555903970e+03 
       1.719587024408e-01       9.964941344338e+02 
       1.777093366043e-01       9.560973298231e+02 
       1.836521595892e-01       9.172461880948e+02 
       1.897936859434e-01       8.753809206067e+02 
       1.961405887197e-01       8.281377577765e+02 
       2.026997397205e-01       7.762493019499e+02 
       2.094782576204e-01       7.231363262981e+02 
       2.164835649183e-01       6.732682395631e+02 
       2.237234547700e-01       6.300812095365e+02 
       2.312061689019e-01       5.944711443826e+02 
       2.389404880235e-01       5.645402034179e+02 
       2.469358364639e-01       5.367083535755e+02 
       2.552024031774e-01       5.077098327713e+02 
       2.637512818304e-01       4.764168843587e+02 
       2.725946334346e-01       4.442901244397e+02 
       2.817458759922e-01       4.140777359316e+02 
       2.912199069386e-01       3.877276765468e+02 
       3.010333659167e-01       3.650780964981e+02 
       3.112049477492e-01       3.442397743816e+02 
       3.217557786063e-01       3.232965603243e+02 
       3.327098726137e-01       3.018737964132e+02 
       3.440946919800e-01       2.811500790345e+02 
       3.559418418397e-01       2.623809325965e+02 
       3.682879424679e-01       2.455623361576e+02 
       3.811757379644e-01       2.296403288369e+02 
       3.946555244921e-01       2.138743001555e+02 
       4.087870168199e-01       1.985930902579e+02 
       4.236418260226e-01       1.844294956632e+02 
       4.393068051236e-01       1.712922206179e+02 
       4.558886528890e-01       1.586326383152e+02 
       4.735203839648e-01       1.463735509720e+02 
       4.923706406368e-01       1.347972595139e+02 
       5.126574611775e-01       1.238064939937e+02 
       5.346692781555e-01       1.131612693797e+02 
       5.587981114823e-01       1.029252939641e+02 
       5.855942772992e-01       9.304221542991e+01 
       6.158610960363e-01       8.337942098269e+01 
       6.508286147849e-01       7.389535972256e+01 
       6.924946569727e-01       6.444869240896e+01 
       7.443480794984e-01       5.489965101468e+01 
       8.130252875281e-01       4.504758727900e+01 
       9.122176599624e-01       3.470382751386e+01 
       1.069670363031e+00       2.407287418430e+01 
       1.319107416856e+00       1.475229014159e+01 
       1.658342146783e+00       8.559543735103e+00 
       2.087688383842e+00       4.904879831537e+00 
       2.628243820009e+00       2.787197080123e+00 
       3.308762933335e+00       1.571924746909e+00 
       4.165485738378e+00       8.804880738964e-01 
       5.244035848510e+00       4.901275584997e-01 
       6.601849990049e+00       2.712834141584e-01 
       8.311236717325e+00       1.493731057901e-01 
       1.046322710688e+01       8.185365358946e-02 
