# Matter power spectrum P(k) at redshift z=0
# for k=1.68634e-07 to 10.6549 h/Mpc,
# number of wavenumbers equal to 140
#    1:k (h/Mpc)              2:P (Mpc/h)^3        
       1.686344168315e-07       2.436437264882e+00 
       2.122981526523e-07       3.034346921459e+00 
       2.672675392509e-07       3.778985556833e+00 
       3.364698969106e-07       4.706360938241e+00 
       4.235905035246e-07       5.861317253524e+00 
       5.332688490818e-07       7.299703594561e+00 
       6.713457054273e-07       9.091074590555e+00 
       8.451741686613e-07       1.132205378005e+01 
       1.064011238320e-06       1.410052235349e+01 
       1.339510786355e-06       1.756083580533e+01 
       1.686344168315e-06       2.187032072260e+01 
       2.122981526523e-06       2.723736582147e+01 
       2.672675392509e-06       3.392149837564e+01 
       3.364698969106e-06       4.224593308694e+01 
       4.235905035246e-06       5.261319981511e+01 
       5.332688490818e-06       6.552460506811e+01 
       6.713457054273e-06       8.160446675204e+01 
       8.451741686613e-06       1.016302910220e+02 
       1.064011238320e-05       1.265703443132e+02 
       1.339510786355e-05       1.576304253993e+02 
       1.686344168315e-05       1.963120754230e+02 
       2.122981526523e-05       2.444849938661e+02 
       2.672675392509e-05       3.044770699259e+02 
       3.364698969106e-05       3.791862010506e+02 
       4.235905035246e-05       4.722189482084e+02 
       5.332688490818e-05       5.880620306071e+02 
       6.713457054273e-05       7.322935796789e+02 
       8.451741686613e-05       9.118416939055e+02 
       1.064011238320e-04       1.135297635791e+03 
       1.339510786355e-04       1.413288978409e+03 
       1.686344168315e-04       1.758912380969e+03 
       2.122981526523e-04       2.188213754592e+03 
       2.672675392509e-04       2.720682235924e+03 
       3.364698969106e-04       3.379692511339e+03 
       4.235905035246e-04       4.192793919266e+03 
       5.332688490818e-04       5.191719207854e+03 
       6.713457054273e-04       6.411958083951e+03 
       8.451741686613e-04       7.891574958638e+03 
       1.064011238320e-03       9.668517236325e+03 
       1.339510786355e-03       1.177559350239e+04 
       1.686344168315e-03       1.423286676265e+04 
       2.122981526523e-03       1.703683470610e+04 
       2.672675392509e-03       2.014741420494e+04 
       3.364698969106e-03       2.347419916958e+04 
       4.235905035246e-03       2.686078714200e+04 
       5.332688490818e-03       3.003909720142e+04 
       6.713457054273e-03       3.274959888667e+04 
       8.451741686613e-03       3.456986613857e+04 
       1.064011238320e-02       3.503838268766e+04 
       1.339510786355e-02       3.368524722157e+04 
       1.686344167549e-02       3.017987938487e+04 
       2.122980327214e-02       2.463710294770e+04 
       2.672376612440e-02       1.801750522683e+04 
       3.348165101316e-02       1.222519513697e+04 
       4.012391386737e-02       9.175498458258e+03 
       4.489528075574e-02       8.124533974459e+03 
       4.865869758051e-02       7.688011910397e+03 
       5.194050844909e-02       7.447385754184e+03 
       5.496052139491e-02       7.256315254839e+03 
       5.782852426711e-02       7.048165940676e+03 
       6.060768226311e-02       6.790173499292e+03 
       6.333823000670e-02       6.469178326543e+03 
       6.604784688378e-02       6.085826157083e+03 
       6.875677880489e-02       5.651113165834e+03 
       7.148060592550e-02       5.183344953966e+03 
       7.423184690679e-02       4.704972781855e+03 
       7.702094207181e-02       4.239368354737e+03 
       7.985688374366e-02       3.807870046812e+03 
       8.274763563860e-02       3.427489999156e+03 
       8.570042058730e-02       3.109549393276e+03 
       8.872192297552e-02       2.859267139855e+03 
       9.181843414727e-02       2.676058043631e+03 
       9.499595856578e-02       2.554135349347e+03 
       9.826029229336e-02       2.483064906652e+03 
       1.016170815160e-01       2.448205512947e+03 
       1.050718664176e-01       2.431372146301e+03 
       1.086301141487e-01       2.412325362641e+03 
       1.122972436119e-01       2.371555970988e+03 
       1.160786441101e-01       2.294195148620e+03 
       1.199796894519e-01       2.173970022610e+03 
       1.240057488109e-01       2.015496010717e+03 
       1.281621954338e-01       1.833452362610e+03 
       1.324544141668e-01       1.648471447268e+03 
       1.368878086830e-01       1.481232816280e+03 
       1.414678092447e-01       1.347126518042e+03 
       1.461998817996e-01       1.253215122608e+03 
       1.510895391905e-01       1.197627649665e+03 
       1.561423552433e-01       1.170468768530e+03 
       1.613639824926e-01       1.155807985385e+03 
       1.667601742936e-01       1.135437571437e+03 
       1.723368120736e-01       1.094795408467e+03 
       1.780999384816e-01       1.029066613804e+03 
       1.840557972172e-01       9.454581649720e+02 
       1.902108803609e-01       8.592452642616e+02 
       1.965719841015e-01       7.858222334977e+02 
       2.031462738662e-01       7.337997675602e+02 
       2.099413600283e-01       7.023180527501e+02 
       2.169653856026e-01       6.824471649103e+02 
       2.242271276685e-01       6.617520213041e+02 
       2.317361147085e-01       6.310113382541e+02 
       2.395027626433e-01       5.896581803395e+02 
       2.475385331380e-01       5.452948914235e+02 
       2.558561188014e-01       5.072634199263e+02 
       2.644696612807e-01       4.798800629891e+02 
       2.733950100995e-01       4.602876635788e+02 
       2.826500325437e-01       4.415679699346e+02 
       2.922549882289e-01       4.187119634591e+02 
       3.022329865256e-01       3.926385584406e+02 
       3.126105513018e-01       3.682145397870e+02 
       3.234183262653e-01       3.486288381457e+02 
       3.346919667489e-01       3.324559283688e+02 
       3.464732819866e-01       3.160944723134e+02 
       3.588117187682e-01       2.983190692820e+02 
       3.717663177323e-01       2.811646910462e+02 
       3.854083355792e-01       2.662920231061e+02 
       3.998248240579e-01       2.526459263490e+02 
       4.151236141026e-01       2.387349276382e+02 
       4.314404153236e-01       2.250939488723e+02 
       4.489491905944e-01       2.125482484928e+02 
       4.678777660749e-01       2.004181274861e+02 
       4.885321230642e-01       1.883481405200e+02 
       5.113357091882e-01       1.767486354042e+02 
       5.368960399664e-01       1.652672932741e+02 
       5.661237988187e-01       1.537982197357e+02 
       6.004598075554e-01       1.422049328651e+02 
       6.423406364881e-01       1.302195960150e+02 
       6.962327143724e-01       1.174724210674e+02 
       7.710727865126e-01       1.034121657185e+02 
       8.855879633993e-01       8.738193513930e+01 
       1.071287757043e+00       6.972118987128e+01 
       1.341565803575e+00       5.357903095844e+01 
       1.688693804985e+00       4.082937033450e+01 
       2.125937882312e+00       3.084603036769e+01 
       2.676397222062e+00       2.298630496358e+01 
       3.369384474909e+00       1.682165250178e+01 
       4.241803737568e+00       1.204556203490e+01 
       5.340114517068e+00       8.417236461816e+00 
       6.722805867428e+00       5.732082559949e+00 
       8.463511145064e+00       3.805944213123e+00 
       1.065492925352e+01       2.468993089017e+00 
