# Matter power spectrum P(k) at redshift z=0.5
# for k=2.09114e-07 to 10.4912 h/Mpc,
# number of wavenumbers equal to 139
#    1:k (h/Mpc)              2:P (Mpc/h)^3        
       2.091139224469e-07       7.483569323695e-01 
       2.632588309284e-07       9.334880995960e-01 
       3.314232321349e-07       1.164417664953e+00 
       4.172371289936e-07       1.452475396695e+00 
       5.252704244341e-07       1.811793860309e+00 
       6.612762853840e-07       2.260001783783e+00 
       8.324975198868e-07       2.819088949954e+00 
       1.048052283041e-06       3.516485047216e+00 
       1.319419652009e-06       4.386405408392e+00 
       1.661050928735e-06       5.471529659696e+00 
       2.091139224469e-06       6.825095631542e+00 
       2.632588309284e-06       8.513511252547e+00 
       3.314232321349e-06       1.061961255406e+01 
       4.172371289936e-06       1.324672759002e+01 
       5.252704244341e-06       1.652374558556e+01 
       6.612762853840e-06       2.061143987446e+01 
       8.324975198868e-06       2.571035456233e+01 
       1.048052283041e-05       3.207064130447e+01 
       1.319419652009e-05       4.000432773129e+01 
       1.661050928735e-05       4.990061728461e+01 
       2.091139224469e-05       6.224496691835e+01 
       2.632588309284e-05       7.764287029769e+01 
       3.314232321349e-05       9.684949694480e+01 
       4.172371289936e-05       1.208066090456e+02 
       5.252704244341e-05       1.506885031741e+02 
       6.612762853840e-05       1.879591051287e+02 
       8.324975198868e-05       2.344427716911e+02 
       1.048052283041e-04       2.924117892113e+02 
       1.319419652009e-04       3.646939204757e+02 
       1.661050928735e-04       4.548034621846e+02 
       2.091139224469e-04       5.670987985189e+02 
       2.632588309284e-04       7.069677943397e+02 
       3.314232321349e-04       8.810387206850e+02 
       4.172371289936e-04       1.097407875340e+03 
       5.252704244341e-04       1.365865620196e+03 
       6.612762853840e-04       1.698092214101e+03 
       8.324975198868e-04       2.107784954217e+03 
       1.048052283041e-03       2.610651789363e+03 
       1.319419652009e-03       3.224110795119e+03 
       1.661050928735e-03       3.966397536242e+03 
       2.091139224469e-03       4.854848997067e+03 
       2.632588309284e-03       5.903130063704e+03 
       3.314232321349e-03       7.117057585327e+03 
       4.172371289936e-03       8.489037580394e+03 
       5.252704244341e-03       9.965510374291e+03 
       6.612762853840e-03       1.152725523240e+04 
       8.324975198868e-03       1.305948546382e+04 
       1.048052283041e-02       1.441691768322e+04 
       1.319419652009e-02       1.540318718215e+04 
       1.661050928731e-02       1.578271750358e+04 
       2.091139201838e-02       1.533100894398e+04 
       2.632572379285e-02       1.395426755904e+04 
       3.312163588632e-02       1.187340486499e+04 
       4.107387848740e-02       9.805832412508e+03 
       4.767319928917e-02       8.614235638263e+03 
       5.247914673715e-02       7.999830368523e+03 
       5.645919143324e-02       7.597351426228e+03 
       6.002078765332e-02       7.282331383966e+03 
       6.334691510579e-02       7.002691952382e+03 
       6.653497754377e-02       6.732590894828e+03 
       6.964361819105e-02       6.458653372692e+03 
       7.271147635560e-02       6.174836887974e+03 
       7.576585019614e-02       5.880077365613e+03 
       7.882714726200e-02       5.576912627495e+03 
       8.191136451078e-02       5.270432899445e+03 
       8.503156109627e-02       4.967318012729e+03 
       8.819877877962e-02       4.674895681886e+03 
       9.142264156531e-02       4.400238893164e+03 
       9.471175997753e-02       4.149355313972e+03 
       9.807401145838e-02       3.926524751292e+03 
       1.015167394309e-01       3.733824505536e+03 
       1.050468973074e-01       3.570860556890e+03 
       1.086711542173e-01       3.434712289429e+03 
       1.123959734794e-01       3.320107048742e+03 
       1.162276712710e-01       3.219863931274e+03 
       1.201724606658e-01       3.125659591546e+03 
       1.242364847370e-01       3.029137030388e+03 
       1.284258414456e-01       2.923278030503e+03 
       1.327466023911e-01       2.803802357795e+03 
       1.372048270668e-01       2.670212657774e+03 
       1.418065739804e-01       2.526073967488e+03 
       1.465579098081e-01       2.378281411635e+03 
       1.514649176316e-01       2.235401361871e+03 
       1.565337052283e-01       2.105521437995e+03 
       1.617704143367e-01       1.994219740356e+03 
       1.671812317877e-01       1.903184898146e+03 
       1.727724033756e-01       1.829793069276e+03 
       1.785502513274e-01       1.767759481956e+03 
       1.845211962213e-01       1.708864518064e+03 
       1.906917842015e-01       1.645522845531e+03 
       1.970687203391e-01       1.573478818443e+03 
       2.036589090044e-01       1.493441558702e+03 
       2.104695021459e-01       1.410630661937e+03 
       2.175079564341e-01       1.332235577313e+03 
       2.247821003243e-01       1.264034118400e+03 
       2.323002122432e-01       1.207857066645e+03 
       2.400711113211e-01       1.161021003072e+03 
       2.481042624008e-01       1.117929973833e+03 
       2.564098974734e-01       1.073175142830e+03 
       2.649991562603e-01       1.024561448829e+03 
       2.738842494154e-01       9.740936252989e+02 
       2.830786488232e-01       9.261021272766e+02 
       2.925973107921e-01       8.839097635101e+02 
       3.024569396949e-01       8.475722859977e+02 
       3.126763019440e-01       8.142562439673e+02 
       3.232766033277e-01       7.808134639477e+02 
       3.342819469873e-01       7.463851175593e+02 
       3.457198951612e-01       7.126790006433e+02 
       3.576221659496e-01       6.817599522325e+02 
       3.700255078316e-01       6.538184948933e+02 
       3.829728111259e-01       6.272756315282e+02 
       3.965145395999e-01       6.008512752453e+02 
       4.107106011273e-01       5.749206152120e+02 
       4.256328304303e-01       5.504885471621e+02 
       4.413683409048e-01       5.275143492346e+02 
       4.580241359687e-01       5.051418392833e+02 
       4.757335883102e-01       4.831495137054e+02 
       4.946657623118e-01       4.619424033610e+02 
       5.150391940311e-01       4.413985274801e+02 
       5.371428999993e-01       4.210928817674e+02 
       5.613695735292e-01       4.010373553757e+02 
       5.882702732970e-01       3.810954079068e+02 
       6.186490439061e-01       3.609405154721e+02 
       6.537363646361e-01       3.403361274652e+02 
       6.955294037235e-01       3.187982104149e+02 
       7.475129881786e-01       2.956581344139e+02 
       8.163097158066e-01       2.697994673164e+02 
       9.155738091435e-01       2.394377835789e+02 
       1.073018670672e+00       2.025029744159e+02 
       1.322701453517e+00       1.608209445978e+02 
       1.662774411119e+00       1.225216420196e+02 
       2.093265970402e+00       9.058837329692e+01 
       2.635265574886e+00       6.476270160644e+01 
       3.317602798979e+00       4.468074517828e+01 
       4.176614469874e+00       2.980203974725e+01 
       5.258046091392e+00       1.930140353549e+01 
       6.619487840838e+00       1.219998517684e+01 
       8.333441455894e+00       7.562742069574e+00 
       1.049118121652e+01       4.617612363952e+00 
