# Matter power spectrum P(k) at redshift z=1.5
# for k=1.59838e-07 to 10.0993 h/Mpc,
# number of wavenumbers equal to 140
#    1:k (h/Mpc)              2:P (Mpc/h)^3        
       1.598383618937e-07       8.449406612295e-01 
       2.012245755676e-07       1.053965049994e+00 
       2.533267316595e-07       1.314698625495e+00 
       3.189194599729e-07       1.639933386986e+00 
       4.014958124756e-07       2.045625862474e+00 
       5.054532810544e-07       2.551679959414e+00 
       6.363279799942e-07       3.182923479962e+00 
       8.010894642503e-07       3.970326206703e+00 
       1.008511883665e-06       4.952519319471e+00 
       1.269641238443e-06       6.177690682638e+00 
       1.598383618937e-06       7.705948978871e+00 
       2.012245755676e-06       9.612272660833e+00 
       2.533267316595e-06       1.199018836152e+01 
       3.189194599729e-06       1.495635916356e+01 
       4.014958124756e-06       1.865630768671e+01 
       5.054532810544e-06       2.327155450059e+01 
       6.363279799942e-06       2.902852151447e+01 
       8.010894642503e-06       3.620963608142e+01 
       1.008511883665e-05       4.516717835894e+01 
       1.269641238443e-05       5.634054706703e+01 
       1.598383618937e-05       7.027778209455e+01 
       2.012245755676e-05       8.766238311384e+01 
       2.533267316595e-05       1.093467066085e+02 
       3.189194599729e-05       1.363935140824e+02 
       4.014958124756e-05       1.701275801490e+02 
       5.054532810544e-05       2.121996370775e+02 
       6.363279799942e-05       2.646652905295e+02 
       8.010894642503e-05       3.300817944733e+02 
       1.008511883665e-04       4.116255149423e+02 
       1.269641238443e-04       5.132321396407e+02 
       1.598383618937e-04       6.397594452541e+02 
       2.012245755676e-04       7.971674246953e+02 
       2.533267316595e-04       9.927008683324e+02 
       3.189194599729e-04       1.235043018323e+03 
       4.014958124756e-04       1.534385748673e+03 
       5.054532810544e-04       1.902339560693e+03 
       6.363279799942e-04       2.351605383269e+03 
       8.010894642503e-04       2.895357688890e+03 
       1.008511883665e-03       3.546242208388e+03 
       1.269641238443e-03       4.314559251076e+03 
       1.598383618937e-03       5.205027982882e+03 
       2.012245755676e-03       6.212559494081e+03 
       2.533267316595e-03       7.317679613555e+03 
       3.189194599729e-03       8.481897752221e+03 
       4.014958124756e-03       9.642765835349e+03 
       5.054532810544e-03       1.071148106353e+04 
       6.363279799942e-03       1.157247069926e+04 
       8.010894642503e-03       1.208607528200e+04 
       1.008511883665e-02       1.209598958282e+04 
       1.269641238443e-02       1.144957655146e+04 
       1.598383618663e-02       1.004987106465e+04 
       2.012245210300e-02       7.962804271618e+03 
       2.533101875956e-02       5.554774948298e+03 
       3.178406690888e-02       3.503188618984e+03 
       3.841723736362e-02       2.444323597788e+03 
       4.324071426718e-02       2.123142532089e+03 
       4.698493123712e-02       2.021098588883e+03 
       5.022160558940e-02       1.983273325346e+03 
       5.318568784971e-02       1.958372265795e+03 
       5.599221462224e-02       1.923313020939e+03 
       5.870643722778e-02       1.866660628523e+03 
       6.136948772520e-02       1.783841328032e+03 
       6.400943476783e-02       1.675292800080e+03 
       6.664667439205e-02       1.545321949587e+03 
       6.929681579303e-02       1.400999925615e+03 
       7.197234169302e-02       1.250936642387e+03 
       7.468361986297e-02       1.104000747161e+03 
       7.743954851430e-02       9.681517867862e+02 
       8.024798399692e-02       8.495684805337e+02 
       8.311603325079e-02       7.521958577661e+02 
       8.605025901699e-02       6.777159870101e+02 
       8.905682690776e-02       6.258170507261e+02 
       9.214161260052e-02       5.945497434342e+02 
       9.531028098129e-02       5.805761119365e+02 
       9.856834511478e-02       5.792484086873e+02 
       1.019212104325e-01       5.846566410420e+02 
       1.053742079321e-01       5.899400986489e+02 
       1.089326191361e-01       5.881375453516e+02 
       1.126016948662e-01       5.735939723050e+02 
       1.163866694290e-01       5.435349202951e+02 
       1.202927715034e-01       4.991074962036e+02 
       1.243252328164e-01       4.452414790192e+02 
       1.284892955613e-01       3.891916508975e+02 
       1.327902194277e-01       3.383280377717e+02 
       1.372332890582e-01       2.981499475239e+02 
       1.418238227149e-01       2.712537438772e+02 
       1.465671829142e-01       2.572628765636e+02 
       1.514687897799e-01       2.532031479354e+02 
       1.565341378500e-01       2.540139837393e+02 
       1.617688170706e-01       2.535311410179e+02 
       1.671785387088e-01       2.463776501577e+02 
       1.727691669206e-01       2.302647963722e+02 
       1.785467567336e-01       2.071657218069e+02 
       1.845175992370e-01       1.821922286894e+02 
       1.906882748421e-01       1.608057180194e+02 
       1.970657155765e-01       1.462899905766e+02 
       2.036572775353e-01       1.387578087063e+02 
       2.104708248284e-01       1.355314906932e+02 
       2.175148266798e-01       1.324640310422e+02 
       2.247984697463e-01       1.260967402856e+02 
       2.323317882907e-01       1.157489941437e+02 
       2.401258155869e-01       1.037475507200e+02 
       2.481927609227e-01       9.337901223353e+01 
       2.565462178687e-01       8.644336850801e+01 
       2.652014112142e-01       8.229903508711e+01 
       2.741754922892e-01       7.869050836760e+01 
       2.834878955129e-01       7.369091235798e+01 
       2.931607732742e-01       6.730900884956e+01 
       3.032195321356e-01       6.113847577964e+01 
       3.136935016006e-01       5.646797713887e+01 
       3.246167784119e-01       5.303841970057e+01 
       3.360293063025e-01       4.962887279511e+01 
       3.479782760723e-01       4.563340497599e+01 
       3.605199682955e-01       4.165109750935e+01 
       3.737222183290e-01       3.837051686549e+01 
       3.876677732677e-01       3.555726921751e+01 
       4.024589552971e-01       3.264259817184e+01 
       4.182242857125e-01       2.972024271432e+01 
       4.351281339878e-01       2.714202975836e+01 
       4.533851833484e-01       2.473853478465e+01 
       4.732828469800e-01       2.233510575019e+01 
       4.952173659710e-01       2.009534755141e+01 
       5.197546146925e-01       1.794819710079e+01 
       5.477380973651e-01       1.585154260238e+01 
       5.804931184885e-01       1.381818940450e+01 
       6.202418208051e-01       1.180239804911e+01 
       6.710165489334e-01       9.776599227387e+00 
       7.408066363178e-01       7.704449572873e+00 
       8.463706747953e-01       5.576201480468e+00 
       1.017553907438e+00       3.550394892447e+00 
       1.271729373035e+00       2.042319020654e+00 
       1.600639506487e+00       1.146650521527e+00 
       2.015082587434e+00       6.393614210619e-01 
       2.536838671679e+00       3.544483090626e-01 
       3.193690669398e+00       1.954609667154e-01 
       4.020618341115e+00       1.072634518283e-01 
       5.061658600755e+00       5.859910501420e-02 
       6.372250638317e+00       3.188011370184e-02 
       8.022188258899e+00       1.727667022576e-02 
       1.009933665732e+01       9.328507398132e-03 
