# Matter power spectrum P(k) at redshift z=1
# for k=2.08637e-07 to 10.4672 h/Mpc,
# number of wavenumbers equal to 139
#    1:k (h/Mpc)              2:P (Mpc/h)^3        
       2.086365514812e-07       5.473470417039e-01 
       2.626578564888e-07       6.800686809913e-01 
       3.306666501411e-07       8.449728882907e-01 
       4.162846486955e-07       1.049863346938e+00 
       5.240713227825e-07       1.304435990242e+00 
       6.597667058435e-07       1.620737837351e+00 
       8.305970718421e-07       2.013737087435e+00 
       1.045659760704e-06       2.502031451361e+00 
       1.316407644841e-06       3.108728238678e+00 
       1.657259036370e-06       3.862537848843e+00 
       2.086365514812e-06       4.799132405863e+00 
       2.626578564888e-06       5.962833829274e+00 
       3.306666501411e-06       7.408711211347e+00 
       4.162846486955e-06       9.205186730834e+00 
       5.240713227825e-06       1.143727337454e+01 
       6.597667058435e-06       1.421059759839e+01 
       8.305970718421e-06       1.765639711258e+01 
       1.045659760704e-05       2.193772994527e+01 
       1.316407644841e-05       2.725718794918e+01 
       1.657259036370e-05       3.386647840216e+01 
       2.086365514812e-05       4.207832451127e+01 
       2.626578564888e-05       5.228124274561e+01 
       3.306666501411e-05       6.495788607876e+01 
       4.162846486955e-05       8.070780101876e+01 
       5.240713227825e-05       1.002756357770e+02 
       6.597667058435e-05       1.245860566982e+02 
       8.305970718421e-05       1.547868731507e+02 
       1.045659760704e-04       1.923021144046e+02 
       1.316407644841e-04       2.388969928315e+02 
       1.657259036370e-04       2.967567145340e+02 
       2.086365514812e-04       3.685807481210e+02 
       2.626578564888e-04       4.576930591728e+02 
       3.306666501411e-04       5.681663821808e+02 
       4.162846486955e-04       7.049541437612e+02 
       5.240713227825e-04       8.740168731303e+02 
       6.597667058435e-04       1.082422061901e+03 
       8.305970718421e-04       1.338390483203e+03 
       1.045659760704e-03       1.651254967556e+03 
       1.316407644841e-03       2.031257875427e+03 
       1.657259036370e-03       2.489003169849e+03 
       2.086365514812e-03       3.034343398962e+03 
       2.626578564888e-03       3.674647064220e+03 
       3.306666501411e-03       4.412274437410e+03 
       4.162846486955e-03       5.241226676437e+03 
       5.240713227825e-03       6.133966127063e+03 
       6.597667058435e-03       7.067656745239e+03 
       8.305970718421e-03       7.976489496964e+03 
       1.045659760704e-02       8.773010939633e+03 
       1.316407644841e-02       9.340614710536e+03 
       1.657259036366e-02       9.541275155940e+03 
       2.086365490716e-02       9.245791438948e+03 
       2.626561883994e-02       8.404041025104e+03 
       3.304529463803e-02       7.151365640069e+03 
       4.096542961254e-02       5.913855996747e+03 
       4.751530405262e-02       5.199149821635e+03 
       5.228993176879e-02       4.825827596498e+03 
       5.624774190175e-02       4.578181039410e+03 
       5.979119760819e-02       4.382696350852e+03 
       6.310134093610e-02       4.208638393926e+03 
       6.627466898910e-02       4.040820735691e+03 
       6.936933300854e-02       3.871444234882e+03 
       7.242367492614e-02       3.697034394124e+03 
       7.546479784711e-02       3.517026508360e+03 
       7.851297280336e-02       3.332935219939e+03 
       8.158409593555e-02       3.147725562597e+03 
       8.469114845720e-02       2.965244478954e+03 
       8.784510942498e-02       2.789673041227e+03 
       9.105555059642e-02       2.625007939946e+03 
       9.433103759600e-02       2.474599805777e+03 
       9.767940821988e-02       2.340778343661e+03 
       1.011079700497e-01       2.224586102935e+03 
       1.046236434341e-01       2.125631878464e+03 
       1.082330664739e-01       2.042070897456e+03 
       1.119426729505e-01       1.970724363517e+03 
       1.157587505900e-01       1.907361680970e+03 
       1.196874847997e-01       1.847171430661e+03 
       1.237349915429e-01       1.785422172639e+03 
       1.279073420573e-01       1.718252998910e+03 
       1.322105814775e-01       1.643446901821e+03 
       1.366507429952e-01       1.560970776691e+03 
       1.412338589088e-01       1.473064964477e+03 
       1.459659697258e-01       1.383768538815e+03 
       1.508531323602e-01       1.297949042154e+03 
       1.559014283913e-01       1.220087351975e+03 
       1.611169733017e-01       1.153153398078e+03 
       1.665059275811e-01       1.097864016889e+03 
       1.720745105653e-01       1.052497326748e+03 
       1.778290178655e-01       1.013333738075e+03 
       1.837758432354e-01       9.757070421927e+02 
       1.899215057186e-01       9.354885073639e+02 
       1.962726829241e-01       8.905531952106e+02 
       2.028362512893e-01       8.415695771630e+02 
       2.096193342244e-01       7.916106358905e+02 
       2.166293590925e-01       7.446695171092e+02 
       2.238741240746e-01       7.037965297407e+02 
       2.313618761224e-01       6.697684724322e+02 
       2.391014014164e-01       6.408849621013e+02 
       2.471021300556e-01       6.139708199163e+02 
       2.553742571245e-01       5.861420912898e+02 
       2.639288828503e-01       5.564007735363e+02 
       2.727781753176e-01       5.260149639715e+02 
       2.819355602068e-01       4.973713572115e+02 
       2.914159433437e-01       4.721534784990e+02 
       3.012359735974e-01       4.502155194047e+02 
       3.114143559961e-01       4.299233835425e+02 
       3.219722280615e-01       4.096225040130e+02 
       3.329336166124e-01       3.889788492237e+02 
       3.443259981232e-01       3.689832784296e+02 
       3.561809938415e-01       3.506928453984e+02 
       3.685352423323e-01       3.341007240283e+02 
       3.814315085597e-01       3.183158111059e+02 
       3.949201126077e-01       3.027066627301e+02 
       4.090607968131e-01       2.875322278826e+02 
       4.239252041889e-01       2.733061277285e+02 
       4.396002249551e-01       2.599466338313e+02 
       4.561926014205e-01       2.469937523612e+02 
       4.738353994335e-01       2.343673968876e+02 
       4.926973216884e-01       2.222791129181e+02 
       5.129964777692e-01       2.106351270709e+02 
       5.350213840212e-01       1.992208455652e+02 
       5.591641571757e-01       1.880557119841e+02 
       5.859752205450e-01       1.770588359328e+02 
       6.162579999885e-01       1.660736205116e+02 
       6.512426080317e-01       1.549911150139e+02 
       6.929267817378e-01       1.435863017725e+02 
       7.447988173666e-01       1.315627892311e+02 
       8.134931814107e-01       1.184426618140e+02 
       9.126960279290e-01       1.035138005393e+02 
       1.070148196698e+00       8.612292713032e+01 
       1.319621337701e+00       6.756880521426e+01 
       1.658976223291e+00       5.143265687429e+01 
       2.088486319259e+00       3.846819581855e+01 
       2.629248359727e+00       2.813562947233e+01 
       3.310027573912e+00       2.002784674683e+01 
       4.167077826537e+00       1.383114337168e+01 
       5.246040168752e+00       9.257012869732e+00 
       6.604373279734e+00       6.013994270853e+00 
       8.314413350832e+00       3.806384104954e+00 
       1.046722625152e+01       2.357306455983e+00 
