# Matter power spectrum P(k) at redshift z=1
# for k=7.39037e-06 to 11.7292 h/Mpc,
# number of wavenumbers equal to 124
#    1:k (h/Mpc)              2:P (Mpc/h)^3        
       7.390371116450e-06       6.976317474827e+01 
       9.303926001089e-06       8.702112521707e+01 
       1.171294887222e-05       1.085482873933e+02 
       1.474572898229e-05       1.353999403607e+02 
       1.856377293123e-05       1.688932831180e+02 
       2.337040548190e-05       2.106700184408e+02 
       2.942159734510e-05       2.627770459866e+02 
       3.703959655333e-05       3.277654678696e+02 
       4.663008934359e-05       4.088131018752e+02 
       5.870380442887e-05       5.098753665339e+02 
       7.390371116450e-05       6.358693041507e+02 
       9.303926001089e-05       7.928952656371e+02 
       1.171294887222e-04       9.884980461646e+02 
       1.474572898229e-04       1.231963350360e+03 
       1.856377293123e-04       1.534632864338e+03 
       2.337040548190e-04       1.910198347920e+03 
       2.942159734510e-04       2.374899083836e+03 
       3.703959655333e-04       2.947502746670e+03 
       4.663008934359e-04       3.648920651059e+03 
       5.870380442887e-04       4.501334261040e+03 
       7.390371116450e-04       5.526748316855e+03 
       9.303926001089e-04       6.744624788100e+03 
       1.171294887222e-03       8.167589192937e+03 
       1.474572898229e-03       9.794838234854e+03 
       1.856377293123e-03       1.160457657714e+04 
       2.337040548190e-03       1.354611234537e+04 
       2.942159734510e-03       1.553352164010e+04 
       3.703959655333e-03       1.744096603469e+04 
       4.663008934359e-03       1.910444758055e+04 
       5.870380442887e-03       2.033260782423e+04 
       7.390371116450e-03       2.091418007100e+04 
       9.303926001089e-03       2.064548228781e+04 
       1.171294887222e-02       1.935948011681e+04 
       1.474572898053e-02       1.699301317231e+04 
       1.856376911323e-02       1.371063367386e+04 
       2.336915898015e-02       1.004419779103e+04 
       2.933522447391e-02       6.886973844391e+03 
       3.556274906844e-02       5.117446359551e+03 
       4.012158223728e-02       4.469907060284e+03 
       4.363907439340e-02       4.168844316017e+03 
       4.666948716515e-02       3.968385321097e+03 
       4.943951930874e-02       3.791643381719e+03 
       5.205933724592e-02       3.608203540875e+03 
       5.459109514554e-02       3.406466611807e+03 
       5.707381919867e-02       3.184588760277e+03 
       5.953406034023e-02       2.946643434758e+03 
       6.199106441006e-02       2.700161227801e+03 
       6.445953004554e-02       2.454590348359e+03 
       6.695119107965e-02       2.219299702327e+03 
       6.947577842392e-02       2.003052332921e+03 
       7.204163267888e-02       1.812309262947e+03 
       7.465610950315e-02       1.651250989225e+03 
       7.732585645504e-02       1.521361551265e+03 
       8.005700705326e-02       1.421761024839e+03 
       8.285531974147e-02       1.349053612504e+03 
       8.572627910918e-02       1.298177554891e+03 
       8.867517058953e-02       1.262224747933e+03 
       9.170713609887e-02       1.233293041157e+03 
       9.482721572200e-02       1.203231668147e+03 
       9.804037902908e-02       1.164713286260e+03 
       1.013515486189e-01       1.112754211194e+03 
       1.047656178272e-01       1.045825465761e+03 
       1.082874641024e-01       9.664182716979e+02 
       1.119219592609e-01       8.803462307286e+02 
       1.156739776398e-01       7.952125922751e+02 
       1.195484030428e-01       7.184885693226e+02 
       1.235501352897e-01       6.554078893203e+02 
       1.276840971319e-01       6.080785032691e+02 
       1.319552422636e-01       5.752913913874e+02 
       1.363685651372e-01       5.528917409460e+02 
       1.409291132814e-01       5.348994723124e+02 
       1.456420028070e-01       5.150177403665e+02 
       1.505124377860e-01       4.888467262084e+02 
       1.555457341830e-01       4.552284550390e+02 
       1.607473490265e-01       4.172423725296e+02 
       1.661229155258e-01       3.796710054288e+02 
       1.716782848701e-01       3.472068810549e+02 
       1.774195755107e-01       3.220553163287e+02 
       1.833532308197e-01       3.031692235467e+02 
       1.894860861620e-01       2.876584510608e+02 
       1.958254466210e-01       2.725200553446e+02 
       2.023791769032e-01       2.556190273332e+02 
       2.091558053317e-01       2.365747485522e+02 
       2.161646443553e-01       2.174131830996e+02 
       2.234159306881e-01       2.005279715042e+02 
       2.309209891005e-01       1.866070202395e+02 
       2.386924250836e-01       1.749790502080e+02 
       2.467443532047e-01       1.639701887147e+02 
       2.550926700989e-01       1.524803817911e+02 
       2.637553839202e-01       1.409597986374e+02 
       2.727530159868e-01       1.301681006853e+02 
       2.821090957696e-01       1.207600298949e+02 
       2.918507779396e-01       1.123617105114e+02 
       3.020096209510e-01       1.042361768432e+02 
       3.126225821786e-01       9.624901047200e+01 
       3.237333074815e-01       8.878822141341e+01 
       3.353938273225e-01       8.197872467735e+01 
       3.476668240215e-01       7.559563081157e+01 
       3.606287168976e-01       6.950953624241e+01 
       3.743739441551e-01       6.376287164031e+01 
       3.890210388639e-01       5.835875274522e+01 
       4.047214694780e-01       5.327356736692e+01 
       4.216728757034e-01       4.841685815181e+01 
       4.401395477183e-01       4.381904983626e+01 
       4.604853460357e-01       3.942576530284e+01 
       4.832290373600e-01       3.520422895653e+01 
       5.091423338651e-01       3.112665510855e+01 
       5.394347009578e-01       2.714687332527e+01 
       5.761277871830e-01       2.321027545698e+01 
       6.228766154348e-01       1.925702065072e+01 
       6.868962316607e-01       1.521548698970e+01 
       7.833166207487e-01       1.106250667787e+01 
       9.395715839138e-01       7.083274157487e+00 
       1.173252154924e+00       4.083216513890e+00 
       1.476624875585e+00       2.292680273222e+00 
       1.858956832466e+00       1.278218478318e+00 
       2.340287990011e+00       7.085493904636e-01 
       2.946248021541e+00       3.906736038310e-01 
       3.709106503766e+00       2.143633247538e-01 
       4.669488432642e+00       1.170879228948e-01 
       5.878537647932e+00       6.369307034049e-02 
       7.400640429170e+00       3.451215075982e-02 
       9.316854299834e+00       1.863336228661e-02 
       1.172922463604e+01       1.002563337196e-02 
