# Matter power spectrum P(k) at redshift z=2.5
# for k=2.05415e-07 to 10.3057 h/Mpc,
# number of wavenumbers equal to 139
#    1:k (h/Mpc)              2:P (Mpc/h)^3        
       2.054150991474e-07       1.716632088289e-01 
       2.586022882829e-07       2.141298564862e-01 
       3.255609922675e-07       2.671020525232e-01 
       4.098570062545e-07       3.331786964786e-01 
       5.159794003757e-07       4.156016123588e-01 
       6.495795790952e-07       5.184145979718e-01 
       8.177722391056e-07       6.466618195787e-01 
       1.029514252870e-06       8.066352860374e-01 
       1.296081654742e-06       1.006183543970e+00 
       1.631670130915e-06       1.255096738394e+00 
       2.054150991474e-06       1.565586927445e+00 
       2.586022882829e-06       1.952887218728e+00 
       3.255609922675e-06       2.435999115840e+00 
       4.098570062545e-06       3.038624730352e+00 
       5.159794003757e-06       3.790329588784e+00 
       6.495795790952e-06       4.727993050354e+00 
       8.177722391056e-06       5.897617438741e+00 
       1.029514252870e-05       7.356584545009e+00 
       1.296081654742e-05       9.176469982200e+00 
       1.631670130915e-05       1.144655305766e+01 
       2.054150991474e-05       1.427819350552e+01 
       2.586022882829e-05       1.781028815886e+01 
       3.255609922675e-05       2.221607197513e+01 
       4.098570062545e-05       2.771159059647e+01 
       5.159794003757e-05       3.456624730044e+01 
       6.495795790952e-05       4.311591651708e+01 
       8.177722391056e-05       5.377921744179e+01 
       1.029514252870e-04       6.707764818970e+01 
       1.296081654742e-04       8.366037638235e+01 
       1.631670130915e-04       1.043345280689e+02 
       2.054150991474e-04       1.301017371306e+02 
       2.586022882829e-04       1.622013665134e+02 
       3.255609922675e-04       2.021599382632e+02 
       4.098570062545e-04       2.518445277581e+02 
       5.159794003757e-04       3.135147509330e+02 
       6.495795790952e-04       3.898634097135e+02 
       8.177722391056e-04       4.840310439519e+02 
       1.029514252870e-03       5.995776508797e+02 
       1.296081654742e-03       7.403957102615e+02 
       1.631670130915e-03       9.105314717729e+02 
       2.054150991474e-03       1.113810794163e+03 
       2.586022882829e-03       1.353140719949e+03 
       3.255609922675e-03       1.629544024450e+03 
       4.098570062545e-03       1.940907730826e+03 
       5.159794003757e-03       2.280350936840e+03 
       6.495795790952e-03       2.634408339347e+03 
       8.177722391056e-03       2.981236439497e+03 
       1.029514252870e-02       3.289160679311e+03 
       1.296081654742e-02       3.516460816664e+03 
       1.631670130908e-02       3.614417601066e+03 
       2.054150956550e-02       3.537833923491e+03 
       2.586000994268e-02       3.268361154517e+03 
       3.253023783491e-02       2.849121823046e+03 
       4.024087754727e-02       2.422800019091e+03 
       4.648935068208e-02       2.165192493581e+03 
       5.107283306434e-02       2.018455833232e+03 
       5.489319142512e-02       1.913855490898e+03 
       5.832360007805e-02       1.827427574911e+03 
       6.153362638411e-02       1.749086855573e+03 
       6.461434903823e-02       1.673931236673e+03 
       6.762095751278e-02       1.599541101561e+03 
       7.058999275443e-02       1.524928477073e+03 
       7.354737048754e-02       1.450032101343e+03 
       7.651252688694e-02       1.375414302854e+03 
       7.950073897330e-02       1.302035865157e+03 
       8.252450746537e-02       1.231061506383e+03 
       8.559442345306e-02       1.163683029236e+03 
       8.871973434631e-02       1.100960517315e+03 
       9.190872617838e-02       1.043686880857e+03 
       9.516898918753e-02       9.922836395879e+02 
       9.850760660754e-02       9.467344907719e+02 
       1.019312913865e-01       9.065619197980e+02 
       1.054464866421e-01       8.708533232365e+02 
       1.090594402624e-01       8.383424989236e+02 
       1.127762606996e-01       8.075516248178e+02 
       1.166029588558e-01       7.769898239458e+02 
       1.205454795689e-01       7.453899360884e+02 
       1.246097252874e-01       7.119434610185e+02 
       1.288015739094e-01       6.764757887133e+02 
       1.331268923612e-01       6.395017677949e+02 
       1.375915472129e-01       6.021229520759e+02 
       1.422014134592e-01       5.657729412918e+02 
       1.469623824705e-01       5.318662424741e+02 
       1.518803700538e-01       5.014415458171e+02 
       1.569613255117e-01       4.748938090519e+02 
       1.622112425622e-01       4.518680568765e+02 
       1.676361729631e-01       4.313535999209e+02 
       1.732422436723e-01       4.119765110034e+02 
       1.790356783679e-01       3.924327382191e+02 
       1.850228241469e-01       3.719315693110e+02 
       1.912101842286e-01       3.504696910365e+02 
       1.976044574979e-01       3.287892434437e+02 
       2.042125857619e-01       3.080115174883e+02 
       2.110418096505e-01       2.891093223964e+02 
       2.180997341891e-01       2.724707344280e+02 
       2.253944052214e-01       2.577602983602e+02 
       2.329343980748e-01       2.441416078816e+02 
       2.407289201671e-01       2.307513039144e+02 
       2.487879296651e-01       2.171680970999e+02 
       2.571222728694e-01       2.035897589427e+02 
       2.657438437408e-01       1.906011483288e+02 
       2.746657699735e-01       1.787069070804e+02 
       2.839026313227e-01       1.679762992244e+02 
       2.934707176205e-01       1.580504792606e+02 
       3.033883362215e-01       1.484765511410e+02 
       3.136761817099e-01       1.390718012556e+02 
       3.243577849061e-01       1.299998700022e+02 
       3.354600639808e-01       1.215176165508e+02 
       3.470140085282e-01       1.136796290302e+02 
       3.590555388077e-01       1.063082399051e+02 
       3.716265986742e-01       9.922116322331e+01 
       3.847765645421e-01       9.241462283244e+01 
       3.985640881747e-01       8.598575418292e+01 
       4.130595449387e-01       7.994439612584e+01 
       4.283483427833e-01       7.419792839234e+01 
       4.445354803296e-01       6.869262372462e+01 
       4.617519602599e-01       6.344972498984e+01 
       4.801640316209e-01       5.846238525079e+01 
       4.999868761161e-01       5.368036939404e+01 
       5.215055176027e-01       4.908337184964e+01 
       5.451079415872e-01       4.465732295909e+01 
       5.713398121659e-01       4.036505741595e+01 
       6.009994583503e-01       3.617726912694e+01 
       6.353126801820e-01       3.205390202699e+01 
       6.762772390170e-01       2.794463043904e+01 
       7.273964688911e-01       2.378254543491e+01 
       7.953653525267e-01       1.948002084691e+01 
       8.940383331726e-01       1.495572093952e+01 
       1.051250800576e+00       1.031751371823e+01 
       1.298936946479e+00       6.299380270940e+00 
       1.633369446224e+00       3.655816777466e+00 
       2.056259568766e+00       2.096290004403e+00 
       2.588677329248e+00       1.191919387547e+00 
       3.258951672686e+00       6.725677277726e-01 
       4.102777076554e+00       3.769010021378e-01 
       5.165090320600e+00       2.098898184552e-01 
       6.502463458816e+00       1.162163489141e-01 
       8.186116487566e+00       6.401261175714e-02 
       1.030571007010e+01       3.508910034062e-02 
