# Matter power spectrum P(k) at redshift z=1.5
# for k=2.09273e-07 to 10.4992 h/Mpc,
# number of wavenumbers equal to 139
#    1:k (h/Mpc)              2:P (Mpc/h)^3        
       2.092727153539e-07       2.015144776876e-01 
       2.634587393541e-07       2.530208165481e-01 
       3.316749019322e-07       3.176919808180e-01 
       4.175539624968e-07       3.988928500591e-01 
       5.256692941825e-07       5.008483541028e-01 
       6.617784326463e-07       6.288632986266e-01 
       8.331296858357e-07       7.895983770502e-01 
       1.048848132819e-06       9.914167298145e-01 
       1.320421567518e-06       1.244819082251e+00 
       1.662312265630e-06       1.562990101300e+00 
       2.092727153539e-06       1.962484396529e+00 
       2.634587393541e-06       2.464087856204e+00 
       3.316749019322e-06       3.093899129691e+00 
       4.175539624968e-06       3.884687516556e+00 
       5.256692941825e-06       4.877597892882e+00 
       6.617784326463e-06       6.124291346576e+00 
       8.331296858357e-06       7.689632821860e+00 
       1.048848132819e-05       9.655065453493e+00 
       1.320421567518e-05       1.212284686581e+01 
       1.662312265630e-05       1.522136721815e+01 
       2.092727153539e-05       1.911182450535e+01 
       2.634587393541e-05       2.399660199512e+01 
       3.316749019322e-05       3.012977887663e+01 
       4.175539624968e-05       3.783031142010e+01 
       5.256692941825e-05       4.749855145403e+01 
       6.617784326463e-05       5.963692389570e+01 
       8.331296858357e-05       7.487576439827e+01 
       1.048848132819e-04       9.400551373559e+01 
       1.320421567518e-04       1.180166530738e+02 
       1.662312265630e-04       1.481488892149e+02 
       2.092727153539e-04       1.859510476482e+02 
       2.634587393541e-04       2.333526925192e+02 
       3.316749019322e-04       2.927473080113e+02 
       4.175539624968e-04       3.670844425392e+02 
       5.256692941825e-04       4.599640807781e+02 
       6.617784326463e-04       5.757209125657e+02 
       8.331296858357e-04       7.194809525717e+02 
       1.048848132819e-03       8.971697083466e+02 
       1.320421567518e-03       1.115438536615e+03 
       1.662312265630e-03       1.381417533066e+03 
       2.092727153539e-03       1.702123132376e+03 
       2.634587393541e-03       2.083433243747e+03 
       3.316749019322e-03       2.528594668217e+03 
       4.175539624968e-03       3.036128167792e+03 
       5.256692941825e-03       3.593308639689e+03 
       6.617784326463e-03       4.185755813974e+03 
       8.331296858357e-03       4.776041779906e+03 
       1.048848132819e-02       5.310715148993e+03 
       1.320421567518e-02       5.715739287433e+03 
       1.662312265626e-02       5.900032960882e+03 
       2.092727131381e-02       5.773615237835e+03 
       2.634571709024e-02       5.293036047499e+03 
       3.314702834090e-02       4.533891356864e+03 
       4.110996535397e-02       3.765016132800e+03 
       4.772592406271e-02       3.318966396022e+03 
       5.254241617264e-02       3.089485308191e+03 
       5.652993345073e-02       2.939529399443e+03 
       6.009761970986e-02       2.822066373108e+03 
       6.342910968670e-02       2.717308817389e+03 
       6.662211320275e-02       2.615383291581e+03 
       6.973543938833e-02       2.511159294757e+03 
       7.280782774763e-02       2.402323928236e+03 
       7.586664211320e-02       2.288499596478e+03 
       7.893233597115e-02       2.170725374982e+03 
       8.202094018449e-02       2.051056385768e+03 
       8.514554010572e-02       1.932190953098e+03 
       8.831719856376e-02       1.817101010125e+03 
       9.154555710991e-02       1.708674105096e+03 
       9.483924134190e-02       1.609387810809e+03 
       9.820614200702e-02       1.521039665090e+03 
       1.016536145530e-01       1.444549513106e+03 
       1.051886234824e-01       1.379842501717e+03 
       1.088178483294e-01       1.325817300849e+03 
       1.125477623162e-01       1.280408297020e+03 
       1.163846911575e-01       1.240758442275e+03 
       1.203348572005e-01       1.203525472951e+03 
       1.244044126042e-01       1.165329805887e+03 
       1.285994642855e-01       1.123311546022e+03 
       1.329260927122e-01       1.075700147528e+03 
       1.373903661914e-01       1.022244236777e+03 
       1.419983520128e-01       9.643373911122e+02 
       1.467561256210e-01       9.047401527690e+02 
       1.516697788655e-01       8.469262869923e+02 
       1.567454283017e-01       7.942192103823e+02 
       1.619892244648e-01       7.489585708973e+02 
       1.674073630108e-01       7.119153799562e+02 
       1.730060985984e-01       6.820919176241e+02 
       1.787917623709e-01       6.569670416798e+02 
       1.847707838922e-01       6.331927157400e+02 
       1.909497183838e-01       6.076442318577e+02 
       1.973352801150e-01       5.785283810370e+02 
       2.039343828103e-01       5.460695971486e+02 
       2.107541879741e-01       5.123577823016e+02 
       2.178021620893e-01       4.803427229376e+02 
       2.250861437454e-01       4.524535218402e+02 
       2.326144219038e-01       4.295237496851e+02 
       2.403958267210e-01       4.105094686000e+02 
       2.484398346644e-01       3.931177205977e+02 
       2.567566900713e-01       3.750822398625e+02 
       2.653575458725e-01       3.554353500115e+02 
       2.742546269570e-01       3.349585934821e+02 
       2.834614206576e-01       3.154496130674e+02 
       2.929929001587e-01       2.983417601814e+02 
       3.028657883841e-01       2.837177020931e+02 
       3.130988722599e-01       2.704144036164e+02 
       3.237133803836e-01       2.570854491052e+02 
       3.347334413933e-01       2.433248488442e+02 
       3.461866461728e-01       2.298360577172e+02 
       3.581047451653e-01       2.175220692872e+02 
       3.705245235461e-01       2.065048434201e+02 
       3.834889134751e-01       1.961191164347e+02 
       3.970484266652e-01       1.857917132615e+02 
       4.112630262098e-01       1.756683433134e+02 
       4.262046107568e-01       1.662032184487e+02 
       4.419603680856e-01       1.574051613752e+02 
       4.586373885917e-01       1.488987920396e+02 
       4.763691471006e-01       1.405776343041e+02 
       4.953248282792e-01       1.326373975344e+02 
       5.157231098390e-01       1.250458056504e+02 
       5.378531741564e-01       1.176178600995e+02 
       5.621079052021e-01       1.103780307647e+02 
       5.890385707442e-01       1.032975465995e+02 
       6.194494167972e-01       9.625999939479e+01 
       6.545710359135e-01       8.921703605500e+01 
       6.964003892577e-01       8.203236725442e+01 
       7.484211113538e-01       7.454475024108e+01 
       8.172517633279e-01       6.649402169322e+01 
       9.165357245742e-01       5.751634430763e+01 
       1.073976718093e+00       4.734820563968e+01 
       1.323726866824e+00       3.688404817870e+01 
       1.664038101821e+00       2.812369660705e+01 
       2.094856175964e+00       2.128304878068e+01 
       2.637267521886e+00       1.589062575722e+01 
       3.320123100928e+00       1.163131535797e+01 
       4.179787342044e+00       8.304548108740e+00 
       5.262040500794e+00       5.762533846017e+00 
       6.624516504340e+00       3.878285631977e+00 
       8.339772168164e+00       2.532227926136e+00 
       1.049915111107e+01       1.608226510826e+00 
