# Matter power spectrum P(k) at redshift z=0
# for k=2.20388e-07 to 11.0569 h/Mpc,
# number of wavenumbers equal to 139
#    1:k (h/Mpc)              2:P (Mpc/h)^3        
       2.203879499856e-07       1.025701722334e+00 
       2.774519906901e-07       1.279178303198e+00 
       3.492913616326e-07       1.595295294182e+00 
       4.397317712795e-07       1.989532708573e+00 
       5.535895012370e-07       2.481196057983e+00 
       6.969278908098e-07       3.094361727981e+00 
       8.773802319285e-07       3.859055979343e+00 
       1.104556269781e-06       4.812725308599e+00 
       1.390553956783e-06       6.002070168918e+00 
       1.750603712666e-06       7.485331844568e+00 
       2.203879499856e-06       9.335144459445e+00 
       2.774519906901e-06       1.164209176818e+01 
       3.492913616326e-06       1.451914288241e+01 
       4.397317712795e-06       1.810718409815e+01 
       5.535895012370e-06       2.258191762733e+01 
       6.969278908098e-06       2.816246488005e+01 
       8.773802319285e-06       3.512209524742e+01 
       1.104556269781e-05       4.380160507351e+01 
       1.390553956783e-05       5.462600060751e+01 
       1.750603712666e-05       6.812529920589e+01 
       2.203879499856e-05       8.496046206029e+01 
       2.774519906901e-05       1.059557178620e+02 
       3.492913616326e-05       1.321388395022e+02 
       4.397317712795e-05       1.647913051811e+02 
       5.535895012370e-05       2.055107195870e+02 
       6.969278908098e-05       2.562883932048e+02 
       8.773802319285e-05       3.196055674209e+02 
       1.104556269781e-04       3.985523899318e+02 
       1.390553956783e-04       4.969742885775e+02 
       1.750603712666e-04       6.196506540787e+02 
       2.203879499856e-04       7.725103324256e+02 
       2.774519906901e-04       9.628867043990e+02 
       3.492913616326e-04       1.199811231157e+03 
       4.397317712795e-04       1.494337559140e+03 
       5.535895012370e-04       1.859878883145e+03 
       6.969278908098e-04       2.312530323019e+03 
       8.773802319285e-04       2.871329520945e+03 
       1.104556269781e-03       3.558350158424e+03 
       1.390553956783e-03       4.398396196104e+03 
       1.750603712666e-03       5.417999421250e+03 
       2.203879499856e-03       6.643442505212e+03 
       2.774519906901e-03       8.097275666983e+03 
       3.492913616326e-03       9.792939710184e+03 
       4.397317712795e-03       1.172727551182e+04 
       5.535895012370e-03       1.380763192211e+04 
       6.969278908098e-03       1.606007193864e+04 
       8.773802319285e-03       1.831580221281e+04 
       1.104556269781e-02       2.037913497989e+04 
       1.390553956783e-02       2.197711155659e+04 
       1.750603712658e-02       2.277196517886e+04 
       2.203879462745e-02       2.242663483160e+04 
       2.774496590041e-02       2.076839383058e+04 
       3.490153154180e-02       1.805373149238e+04 
       4.317665964232e-02       1.527260445309e+04 
       4.988590835210e-02       1.364769575075e+04 
       5.480658151057e-02       1.277794205020e+04 
       5.890743267866e-02       1.219533271998e+04 
       6.258943778584e-02       1.173512320369e+04 
       6.603475099600e-02       1.132576220630e+04 
       6.934119296794e-02       1.093044893278e+04 
       7.256803035592e-02       1.052928363075e+04 
       7.575449953475e-02       1.011257029186e+04 
       7.892842559111e-02       9.677783073993e+03 
       8.211067524673e-02       9.227814663803e+03 
       8.531764899065e-02       8.769618769709e+03 
       8.856276616719e-02       8.312903126053e+03 
       9.185739566642e-02       7.868776925603e+03 
       9.521146364681e-02       7.448382145448e+03 
       9.863386404005e-02       7.061601021682e+03 
       1.021327437143e-01       6.715940215167e+03 
       1.057157051789e-01       6.415670608031e+03 
       1.093899533758e-01       6.161266076763e+03 
       1.131624035346e-01       5.949162475153e+03 
       1.170397612676e-01       5.771867706946e+03 
       1.210285824714e-01       5.618495335327e+03 
       1.251353182977e-01       5.475832855893e+03 
       1.293663489573e-01       5.330032663789e+03 
       1.337280091381e-01       5.168868308659e+03 
       1.382266071576e-01       4.984220795173e+03 
       1.428684395410e-01       4.774149739736e+03 
       1.476598024177e-01       4.543759097993e+03 
       1.526070009461e-01       4.304287190650e+03 
       1.577163578487e-01       4.070438312258e+03 
       1.629942220614e-01       3.856662414043e+03 
       1.684469784542e-01       3.673476115124e+03 
       1.740810595472e-01       3.524809839873e+03 
       1.799029601281e-01       3.406955216574e+03 
       1.859192556635e-01       3.309360811255e+03 
       1.921366253872e-01       3.217391604483e+03 
       1.985618809470e-01       3.116848982107e+03 
       2.052020014920e-01       2.999127160952e+03 
       2.120641761021e-01       2.864756129423e+03 
       2.191558544925e-01       2.723074486816e+03 
       2.264848069942e-01       2.587693957882e+03 
       2.340591949136e-01       2.470029813619e+03 
       2.418876525344e-01       2.374221169071e+03 
       2.499793822568e-01       2.295694295967e+03 
       2.583442646951e-01       2.223880726727e+03 
       2.669929860007e-01       2.148065002707e+03 
       2.759371852766e-01       2.063529916939e+03 
       2.851896257503e-01       1.973955924389e+03 
       2.947643944295e-01       1.887993044027e+03 
       3.046771363646e-01       1.812576812670e+03 
       3.149453314939e-01       1.748171423587e+03 
       3.255886245210e-01       1.689258832975e+03 
       3.366292215921e-01       1.629409862270e+03 
       3.480923720504e-01       1.566724528991e+03 
       3.600069597374e-01       1.504659836385e+03 
       3.724062369360e-01       1.447579850897e+03 
       3.853287462377e-01       1.396048366189e+03 
       3.988194931106e-01       1.346890491012e+03 
       4.129314575003e-01       1.297437091535e+03 
       4.277275708190e-01       1.248449084768e+03 
       4.432833424344e-01       1.202064522706e+03 
       4.596904094579e-01       1.158271821270e+03 
       4.770614264153e-01       1.115325198223e+03 
       4.955369449743e-01       1.072768018402e+03 
       5.152953279455e-01       1.031453392657e+03 
       5.365674296725e-01       9.911513536928e+02 
       5.596590232703e-01       9.509968068227e+02 
       5.849863222814e-01       9.110030229846e+02 
       6.131346626436e-01       8.708656052648e+02 
       6.449603647825e-01       8.298841948466e+02 
       6.817781774444e-01       7.874852745520e+02 
       7.257306365979e-01       7.425367832186e+02 
       7.805745510929e-01       6.933865794258e+02 
       8.534884412897e-01       6.371964310994e+02 
       9.593262446295e-01       5.691718264215e+02 
       1.127938543483e+00       4.830579138765e+02 
       1.393624614033e+00       3.817423187751e+02 
       1.752426162502e+00       2.852848013013e+02 
       2.206140625713e+00       2.040075104125e+02 
       2.777366392694e+00       1.401309294970e+02 
       3.496497129583e+00       9.304546364947e+01 
       4.401829088697e+00       6.013578892502e+01 
       5.541574498135e+00       3.806766645572e+01 
       6.976428957053e+00       2.372509403575e+01 
       8.782803697611e+00       1.461664153559e+01 
       1.105689476172e+01       8.929114626767e+00 
