# Matter power spectrum P(k) at redshift z=1.5
# for k=1.97314e-07 to 12.463 h/Mpc,
# number of wavenumbers equal to 140
#    1:k (h/Mpc)              2:P (Mpc/h)^3        
       1.973135815556e-07       3.629630802683e-01 
       2.484030819124e-07       4.527541622699e-01 
       3.127209521875e-07       5.647580773692e-01 
       3.936923535094e-07       7.044699141077e-01 
       4.956293082620e-07       8.787441548752e-01 
       6.239603310010e-07       1.096130967600e+00 
       7.855195166486e-07       1.367295689656e+00 
       9.889104809692e-07       1.705542085034e+00 
       1.244964534482e-06       2.127465045375e+00 
       1.567317489242e-06       2.653764756848e+00 
       1.973135815556e-06       3.310262274381e+00 
       2.484030819124e-06       4.129166323825e+00 
       3.127209521875e-06       5.150653476150e+00 
       3.936923535094e-06       6.424839198958e+00 
       4.956293082620e-06       8.014236452317e+00 
       6.239603310010e-06       9.996822384721e+00 
       7.855195166486e-06       1.246986344083e+01 
       9.889104809692e-06       1.555468627327e+01 
       1.244964534482e-05       1.940262797406e+01 
       1.567317489242e-05       2.420245648727e+01 
       1.973135815556e-05       3.018962309146e+01 
       2.484030819124e-05       3.765779670662e+01 
       3.127209521875e-05       4.697323753616e+01 
       3.936923535094e-05       5.859269877170e+01 
       4.956293082620e-05       7.308570208501e+01 
       6.239603310010e-05       9.116221577537e+01 
       7.855195166486e-05       1.137069671277e+02 
       9.889104809692e-05       1.418218250635e+02 
       1.244964534482e-04       1.768778485423e+02 
       1.567317489242e-04       2.205786158461e+02 
       1.973135815556e-04       2.750361406002e+02 
       2.484030819124e-04       3.428597031537e+02 
       3.127209521875e-04       4.272557311859e+02 
       3.936923535094e-04       5.321327305299e+02 
       4.956293082620e-04       6.621986960944e+02 
       6.239603310010e-04       8.230302787770e+02 
       7.855195166486e-04       1.021086832630e+03 
       9.889104809692e-04       1.263640894712e+03 
       1.244964534482e-03       1.558579851474e+03 
       1.567317489242e-03       1.913944113562e+03 
       1.973135815556e-03       2.336961994454e+03 
       2.484030819124e-03       2.832519332494e+03 
       3.127209521875e-03       3.401091366175e+03 
       3.936923535094e-03       4.036039136948e+03 
       4.956293082620e-03       4.720146209876e+03 
       6.239603310010e-03       5.421811777835e+03 
       7.855195166486e-03       6.091305320444e+03 
       9.889104809692e-03       6.657570793681e+03 
       1.244964534482e-02       7.027548473360e+03 
       1.567317489240e-02       7.092897301048e+03 
       1.973135806368e-02       6.755038947183e+03 
       2.484022799049e-02       5.983277120559e+03 
       3.125968560936e-02       4.901896704846e+03 
       3.891307818071e-02       3.861396880945e+03 
       4.556357460801e-02       3.277412614573e+03 
       5.035549609238e-02       3.006577108433e+03 
       5.427508503001e-02       2.845054078023e+03 
       5.775970380599e-02       2.725931244525e+03 
       6.100162574408e-02       2.622307574206e+03 
       6.410149477455e-02       2.521050253340e+03 
       6.711918081683e-02       2.415393033759e+03 
       7.009377674140e-02       2.302301189974e+03 
       7.305270429706e-02       2.181305730333e+03 
       7.601634279541e-02       2.053827662665e+03 
       7.900058727596e-02       1.922647938991e+03 
       8.201835783608e-02       1.791403078070e+03 
       8.508053792199e-02       1.664081020376e+03 
       8.819658297711e-02       1.544536824274e+03 
       9.137492933175e-02       1.436065432672e+03 
       9.462327696569e-02       1.341066179501e+03 
       9.794878976616e-02       1.260816648592e+03 
       1.013582401218e-01       1.195354484951e+03 
       1.048581149235e-01       1.143454644629e+03 
       1.084546941575e-01       1.102694989398e+03 
       1.121541096256e-01       1.069626869594e+03 
       1.159623890087e-01       1.040091269962e+03 
       1.198854889869e-01       1.009722368797e+03 
       1.239293201389e-01       9.746324605571e+02 
       1.280997656933e-01       9.321791234126e+02 
       1.324026957606e-01       8.816110819238e+02 
       1.368439783889e-01       8.243444352760e+02 
       1.414294885954e-01       7.636917284713e+02 
       1.461651163964e-01       7.040535903624e+02 
       1.510567747866e-01       6.497976351758e+02 
       1.561104085620e-01       6.041671851428e+02 
       1.613320048545e-01       5.685144915933e+02 
       1.667276062243e-01       5.420018803229e+02 
       1.723033271433e-01       5.218022617777e+02 
       1.780653746959e-01       5.038158532813e+02 
       1.840200743159e-01       4.838812578471e+02 
       1.901739013833e-01       4.592276235373e+02 
       1.965335195158e-01       4.295725088513e+02 
       2.031058264181e-01       3.971997778379e+02 
       2.098980082091e-01       3.658311007250e+02 
       2.169176032342e-01       3.388491825330e+02 
       2.241725765104e-01       3.177974140136e+02 
       2.316714061548e-01       3.018215530535e+02 
       2.394231834322e-01       2.882300893230e+02 
       2.474377284540e-01       2.739630280280e+02 
       2.557257240898e-01       2.573179927678e+02 
       2.642988713638e-01       2.388676535685e+02 
       2.731700705474e-01       2.208257465497e+02 
       2.823536334001e-01       2.053107615912e+02 
       2.918655336562e-01       1.928555738462e+02 
       3.017237050444e-01       1.822206988799e+02 
       3.119483990631e-01       1.715646743031e+02 
       3.225626187158e-01       1.600236654808e+02 
       3.335926498669e-01       1.482952394855e+02 
       3.450687194576e-01       1.376718448089e+02 
       3.570258205040e-01       1.286096446337e+02 
       3.695047590898e-01       1.203827051272e+02 
       3.825535008301e-01       1.120982945011e+02 
       3.962289273049e-01       1.037621422467e+02 
       4.105991629211e-01       9.602208093854e+01 
       4.257467099463e-01       8.908067029902e+01 
       4.417727519293e-01       8.247525974829e+01 
       4.588031850933e-01       7.594755926947e+01 
       4.769972717213e-01       6.976863135350e+01 
       4.965603897333e-01       6.401807686911e+01 
       5.177633980476e-01       5.844333673418e+01 
       5.409731036313e-01       5.305858110852e+01 
       5.667021997106e-01       4.791871152473e+01 
       5.956951525299e-01       4.289233659804e+01 
       6.290845344360e-01       3.798594332539e+01 
       6.686951938985e-01       3.311932638707e+01 
       7.176829459187e-01       2.823054155972e+01 
       7.819848159714e-01       2.321895586881e+01 
       8.737508989085e-01       1.798887787329e+01 
       1.017997960056e+00       1.260481953734e+01 
       1.249006279957e+00       7.774151258047e+00 
       1.569059763500e+00       4.494302659281e+00 
       1.975258128313e+00       2.562978584785e+00 
       2.486702351616e+00       1.450045671035e+00 
       3.130572781832e+00       8.145719400244e-01 
       3.941157628520e+00       4.546383818673e-01 
       4.961623490430e+00       2.522539167745e-01 
       6.246313895858e+00       1.392073409889e-01 
       7.863643293538e+00       7.644161423034e-02 
       9.899740371520e+00       4.178386974785e-02 
       1.246303472387e+01       2.274278303584e-02 
