# Matter power spectrum P(k) at redshift z=2
# for k=2.12038e-07 to 10.6379 h/Mpc,
# number of wavenumbers equal to 139
#    1:k (h/Mpc)              2:P (Mpc/h)^3        
       2.120383776095e-07       1.461912183075e-01 
       2.669405018482e-07       1.823565155292e-01 
       3.360581812138e-07       2.274685109735e-01 
       4.230721841714e-07       2.837404701889e-01 
       5.326163236767e-07       3.539331840756e-01 
       6.705242246129e-07       4.414904175095e-01 
       8.441399855888e-07       5.507078656608e-01 
       1.062709278969e-06       6.869439071961e-01 
       1.337871716644e-06       8.568824939324e-01 
       1.684280701804e-06       1.068861074722e+00 
       2.120383776095e-06       1.333279640466e+00 
       2.669405018482e-06       1.663110958047e+00 
       3.360581812138e-06       2.074537022550e+00 
       4.230721841714e-06       2.587742948292e+00 
       5.326163236767e-06       3.227907233478e+00 
       6.705242246129e-06       4.026436965727e+00 
       8.441399855888e-06       5.022508515902e+00 
       1.062709278969e-05       6.264989230466e+00 
       1.337871716644e-05       7.814834216175e+00 
       1.684280701804e-05       9.748075465022e+00 
       2.120383776095e-05       1.215954928614e+01 
       2.669405018482e-05       1.516754354206e+01 
       3.360581812138e-05       1.891959001543e+01 
       4.230721841714e-05       2.359968076560e+01 
       5.326163236767e-05       2.943725205213e+01 
       6.705242246129e-05       3.671835585021e+01 
       8.441399855888e-05       4.579952640833e+01 
       1.062709278969e-04       5.712494201638e+01 
       1.337871716644e-04       7.124756729875e+01 
       1.684280701804e-04       8.885500810222e+01 
       2.120383776095e-04       1.108007585853e+02 
       2.669405018482e-04       1.381412534995e+02 
       3.360581812138e-04       1.721784612193e+02 
       4.230721841714e-04       2.145063768357e+02 
       5.326163236767e-04       2.670574012881e+02 
       6.705242246129e-04       3.321412494615e+02 
       8.441399855888e-04       4.124657157692e+02 
       1.062709278969e-03       5.111271785146e+02 
       1.337871716644e-03       6.315564097877e+02 
       1.684280701804e-03       7.773823515314e+02 
       2.120383776095e-03       9.521200745064e+02 
       2.669405018482e-03       1.158602962018e+03 
       3.360581812138e-03       1.398187146592e+03 
       4.230721841714e-03       1.669660385204e+03 
       5.326163236767e-03       1.967759732367e+03 
       6.705242246129e-03       2.281395938776e+03 
       8.441399855888e-03       2.591725997084e+03 
       1.062709278969e-02       2.870251404609e+03 
       1.337871716644e-02       3.077793638584e+03 
       1.684280701799e-02       3.166441387188e+03 
       2.120383752629e-02       3.089183060684e+03 
       2.669388594710e-02       2.823858629395e+03 
       3.358458894041e-02       2.411367975154e+03 
       4.164319366487e-02       1.995639561197e+03 
       4.832277712749e-02       1.754693141539e+03 
       5.318880944116e-02       1.630447096579e+03 
       5.721991284382e-02       1.549323942356e+03 
       6.082781561319e-02       1.486014681874e+03 
       6.419752360127e-02       1.429818574675e+03 
       6.742756299057e-02       1.375353964350e+03 
       7.057727170225e-02       1.319783338086e+03 
       7.368575617323e-02       1.261782609796e+03 
       7.678064985826e-02       1.201072443700e+03 
       7.988261422838e-02       1.138145884565e+03 
       8.300784745571e-02       1.074058763732e+03 
       8.616957448452e-02       1.010233643267e+03 
       8.937897837452e-02       9.482629313135e+02 
       9.264580712905e-02       8.897159262131e+02 
       9.597878285944e-02       8.359609528126e+02 
       9.938588559586e-02       7.880157271989e+02 
       1.028745547860e-01       7.464357088388e+02 
       1.064518350732e-01       7.112450004378e+02 
       1.101244833270e-01       6.819121298206e+02 
       1.138990480857e-01       6.573751433636e+02 
       1.177819289511e-01       6.361247755834e+02 
       1.217794211713e-01       6.163594977490e+02 
       1.258977491543e-01       5.962201687988e+02 
       1.301430916639e-01       5.740913289193e+02 
       1.345216008033e-01       5.489205331291e+02 
       1.390394164476e-01       5.204731534778e+02 
       1.437026775041e-01       4.894279990066e+02 
       1.485175311835e-01       4.572502507314e+02 
       1.534901413449e-01       4.258477484509e+02 
       1.586266968978e-01       3.970969379672e+02 
       1.639334211943e-01       3.723713801448e+02 
       1.694165833157e-01       3.521975193322e+02 
       1.750825121378e-01       3.361169025853e+02 
       1.809376140434e-01       3.227917407389e+02 
       1.869883951478e-01       3.103644478703e+02 
       1.932414888920e-01       2.970315826855e+02 
       1.997036898671e-01       2.816823829006e+02 
       2.063819947446e-01       2.643325805499e+02 
       2.132836512230e-01       2.460955139015e+02 
       2.204162159583e-01       2.286479558066e+02 
       2.277876225498e-01       2.134423639386e+02 
       2.354062608000e-01       2.010572859526e+02 
       2.432810686930e-01       1.909823718056e+02 
       2.514216388438e-01       1.819284934876e+02 
       2.598383416002e-01       1.725417262002e+02 
       2.685424675550e-01       1.621698931378e+02 
       2.775463929901e-01       1.511944219224e+02 
       2.868637727919e-01       1.406607671235e+02 
       2.965097667194e-01       1.314716794569e+02 
       3.065013066826e-01       1.237549318504e+02 
       3.168574150581e-01       1.168589871687e+02 
       3.275995872539e-01       1.099529216430e+02 
       3.387522560462e-01       1.027317889575e+02 
       3.503433611433e-01       9.558886070090e+01 
       3.624050556750e-01       8.910051326559e+01 
       3.749745929473e-01       8.339414137609e+01 
       3.880954535024e-01       7.808061148958e+01 
       4.018187968811e-01       7.277794716504e+01 
       4.162053587014e-01       6.754941917560e+01 
       4.313279685929e-01       6.269444137102e+01 
       4.472749497195e-01       5.825140984211e+01 
       4.641547960345e-01       5.398480536669e+01 
       4.821027445818e-01       4.980980219292e+01 
       5.012902325393e-01       4.586100367774e+01 
       5.219388774228e-01       4.213946443456e+01 
       5.443417933133e-01       3.852506273575e+01 
       5.688972769224e-01       3.503957341883e+01 
       5.961643106960e-01       3.168568620949e+01 
       6.269586083028e-01       2.839933913975e+01 
       6.625287092619e-01       2.517658515019e+01 
       7.049015009288e-01       2.196451324362e+01 
       7.576145299869e-01       1.871822114778e+01 
       8.273924220320e-01       1.536810957447e+01 
       9.281023657110e-01       1.185001034929e+01 
       1.087877094894e+00       8.230866913753e+00 
       1.341177949617e+00       5.050185829337e+00 
       1.686027335549e+00       2.932132284540e+00 
       2.122539734706e+00       1.681081237533e+00 
       2.672119061713e+00       9.557318577851e-01 
       3.363998590059e+00       5.392511791701e-01 
       4.235023310266e+00       3.021749442225e-01 
       5.331578464834e+00       1.682697069284e-01 
       6.712059614354e+00       9.316861601314e-02 
       8.449982413988e+00       5.131659442669e-02 
       1.063789759018e+01       2.812895121178e-02 
