# Matter power spectrum P(k) at redshift z=1.5
# for k=2.07115e-07 to 10.3909 h/Mpc,
# number of wavenumbers equal to 139
#    1:k (h/Mpc)              2:P (Mpc/h)^3        
       2.071149225221e-07       4.284359126815e-01 
       2.607422391248e-07       5.310750114488e-01 
       3.282550307623e-07       6.583030491290e-01 
       4.132485997760e-07       8.160107234853e-01 
       5.202491636463e-07       1.011499948608e+00 
       6.549548925790e-07       1.253821935384e+00 
       8.245393578467e-07       1.554196265214e+00 
       1.038033550618e-06       1.926530358621e+00 
       1.306806815167e-06       2.388063390548e+00 
       1.645172307920e-06       2.960164466084e+00 
       2.071149225221e-06       3.669322005916e+00 
       2.607422391248e-06       4.548370151682e+00 
       3.282550307623e-06       5.638008960515e+00 
       4.132485997760e-06       6.988688763726e+00 
       5.202491636463e-06       8.662945892094e+00 
       6.549548925790e-06       1.073829786263e+01 
       8.245393578467e-06       1.331083193882e+01 
       1.038033550618e-05       1.649965296252e+01 
       1.306806815167e-05       2.045239591232e+01 
       1.645172307920e-05       2.535205746873e+01 
       2.071149225221e-05       3.142546095912e+01 
       2.607422391248e-05       3.895374296244e+01 
       3.282550307623e-05       4.828533977082e+01 
       4.132485997760e-05       5.985206072218e+01 
       5.202491636463e-05       7.418896453314e+01 
       6.549548925790e-05       9.195890410754e+01 
       8.245393578467e-05       1.139827687117e+02 
       1.038033550618e-04       1.412766144681e+02 
       1.306806815167e-04       1.750969955216e+02 
       1.645172307920e-04       2.169958102920e+02 
       2.071149225221e-04       2.688857052222e+02 
       2.607422391248e-04       3.331162566949e+02 
       3.282550307623e-04       4.125593363371e+02 
       4.132485997760e-04       5.106986750040e+02 
       5.202491636463e-04       6.317132663851e+02 
       6.549548925790e-04       7.805375440605e+02 
       8.245393578467e-04       9.628760109511e+02 
       1.038033550618e-03       1.185148209692e+03 
       1.306806815167e-03       1.454326023050e+03 
       1.645172307920e-03       1.777553215336e+03 
       2.071149225221e-03       2.161348594726e+03 
       2.607422391248e-03       2.610331255924e+03 
       3.282550307623e-03       3.125477839017e+03 
       4.132485997760e-03       3.701785731778e+03 
       5.202491636463e-03       4.325323966809e+03 
       6.549548925790e-03       4.964140628676e+03 
       8.245393578467e-03       5.585804148598e+03 
       1.038033550618e-02       6.126333706954e+03 
       1.306806815167e-02       6.507276421738e+03 
       1.645172307914e-02       6.637583690752e+03 
       2.071149196101e-02       6.434145930877e+03 
       2.607403226015e-02       5.867509021803e+03 
       3.280193921269e-02       5.029332069980e+03 
       4.062079778015e-02       4.201209227547e+03 
       4.701995416872e-02       3.716625840901e+03 
       5.169917582950e-02       3.453681251527e+03 
       5.558883393674e-02       3.273333954699e+03 
       5.907647314098e-02       3.127902150718e+03 
       6.233731722255e-02       2.997420611940e+03 
       6.546512822419e-02       2.872109551381e+03 
       6.851656784210e-02       2.747039067485e+03 
       7.152907502127e-02       2.620093256857e+03 
       7.452915911908e-02       2.491012267694e+03 
       7.753667470185e-02       2.360824649601e+03 
       8.056720974958e-02       2.231421930490e+03 
       8.363350681036e-02       2.105184690405e+03 
       8.674635260900e-02       1.984632591905e+03 
       8.991515840031e-02       1.872102208399e+03 
       9.314835168303e-02       1.769466544969e+03 
       9.645364813596e-02       1.677912538862e+03 
       9.983824481926e-02       1.597789376777e+03 
       1.033089600263e-01       1.528535392760e+03 
       1.068723360068e-01       1.468691749688e+03 
       1.105347152338e-01       1.416013488952e+03 
       1.143022974354e-01       1.367692150885e+03 
       1.181811824074e-01       1.320697387484e+03 
       1.221774021957e-01       1.272222288215e+03 
       1.262969452933e-01       1.220174854677e+03 
       1.305457748725e-01       1.163610406268e+03 
       1.349298426548e-01       1.102972834110e+03 
       1.394550997445e-01       1.040033362683e+03 
       1.441275055712e-01       9.774937290124e+02 
       1.489530359661e-01       9.183304527944e+02 
       1.539376913241e-01       8.650504382763e+02 
       1.590875057553e-01       8.190576643124e+02 
       1.644085581015e-01       7.802942321725e+02 
       1.699069856737e-01       7.472509179340e+02 
       1.755890015542e-01       7.173765897950e+02 
       1.814609162994e-01       6.878384631521e+02 
       1.875291648747e-01       6.564560687773e+02 
       1.938003396570e-01       6.224783470385e+02 
       2.002812303539e-01       5.868263463130e+02 
       2.069788717242e-01       5.516155304377e+02 
       2.139006000390e-01       5.191447951033e+02 
       2.210541193273e-01       4.908403467283e+02 
       2.284475785927e-01       4.666586027464e+02 
       2.360896614096e-01       4.452154262381e+02 
       2.439896896102e-01       4.245811091696e+02 
       2.521577431927e-01       4.033528388852e+02 
       2.606047991449e-01       3.813893299830e+02 
       2.693428926259e-01       3.597138805838e+02 
       2.783853049437e-01       3.396504211317e+02 
       2.877467840791e-01       3.218411371836e+02 
       2.974438052439e-01       3.058657627958e+02 
       3.074948812846e-01       2.907001489611e+02 
       3.179209358525e-01       2.756015141009e+02 
       3.287457564923e-01       2.606477239379e+02 
       3.399965506082e-01       2.464601667487e+02 
       3.517046353475e-01       2.334513624110e+02 
       3.639063038613e-01       2.214144993944e+02 
       3.766439267865e-01       2.098483613075e+02 
       3.899673717107e-01       1.985549224294e+02 
       4.039358589613e-01       1.877497164318e+02 
       4.186204260637e-01       1.776150712953e+02 
       4.341072570361e-01       1.680063352427e+02 
       4.505022660357e-01       1.587142040291e+02 
       4.679375428812e-01       1.497568530734e+02 
       4.865806354198e-01       1.411997036269e+02 
       5.066482846035e-01       1.329454364356e+02 
       5.284273899706e-01       1.249103538327e+02 
       5.523081837217e-01       1.170932650216e+02 
       5.788389719408e-01       1.094196304341e+02 
       6.088210284891e-01       1.018117249305e+02 
       6.434829395017e-01       9.418615537506e+01 
       6.848235176038e-01       8.641006056119e+01 
       7.363405102101e-01       7.829976921937e+01 
       8.047024789166e-01       6.957460895668e+01 
       9.036882203661e-01       5.984246833949e+01 
       1.061106332582e+00       4.885106902403e+01 
       1.309828902931e+00       3.766449776998e+01 
       1.646876553087e+00       2.841871792667e+01 
       2.073259268092e+00       2.126596690058e+01 
       2.610078662676e+00       1.569046443765e+01 
       3.285894355173e+00       1.134612482938e+01 
       4.136695904199e+00       8.005048996377e+00 
       5.207791594661e+00       5.493733922184e+00 
       6.556221177847e+00       3.661848395464e+00 
       8.253793446134e+00       2.371663657287e+00 
       1.039091031304e+01       1.496405594577e+00 
