# Matter power spectrum P(k) at redshift z=1
# for k=1.83113e-07 to 11.567 h/Mpc,
# number of wavenumbers equal to 140
#    1:k (h/Mpc)              2:P (Mpc/h)^3        
       1.831128217661e-07       7.216782707524e-01 
       2.305253845467e-07       9.002095766853e-01 
       2.902142646694e-07       1.122906583763e+00 
       3.653581126575e-07       1.400695157678e+00 
       4.599586124297e-07       1.747204042425e+00 
       5.790535855613e-07       2.179433507339e+00 
       7.289852736537e-07       2.718589405333e+00 
       9.177380858264e-07       3.391123562506e+00 
       1.155363797618e-06       4.230031540110e+00 
       1.454516844688e-06       5.276471437009e+00 
       1.831128217661e-06       6.581783146338e+00 
       2.305253845467e-06       8.210007123329e+00 
       2.902142646694e-06       1.024102621808e+01 
       3.653581126575e-06       1.277448466483e+01 
       4.599586124297e-06       1.593467641660e+01 
       5.790535855613e-06       1.987664247246e+01 
       7.289852736537e-06       2.479377598291e+01 
       9.177380858264e-06       3.092730757409e+01 
       1.155363797618e-05       3.857813483962e+01 
       1.454516844689e-05       4.812157369262e+01 
       1.831128217661e-05       6.002574987581e+01 
       2.305253845467e-05       7.487452231597e+01 
       2.902142646694e-05       9.339604194830e+01 
       3.653581126575e-05       1.164983056276e+02 
       4.599586124297e-05       1.453133676244e+02 
       5.790535855613e-05       1.812522163395e+02 
       7.289852736537e-05       2.260726918968e+02 
       9.177380858264e-05       2.819631554826e+02 
       1.155363797618e-04       3.516448061133e+02 
       1.454516844688e-04       4.384953284371e+02 
       1.831128217661e-04       5.466954884651e+02 
       2.305253845467e-04       6.813975792400e+02 
       2.902142646694e-04       8.489090742773e+02 
       3.653581126575e-04       1.056875195336e+03 
       4.599586124297e-04       1.314430247926e+03 
       5.790535855613e-04       1.632273269442e+03 
       7.289852736537e-04       2.022616586884e+03 
       9.177380858264e-04       2.498949031708e+03 
       1.155363797618e-03       3.075477139632e+03 
       1.454516844689e-03       3.765894169708e+03 
       1.831128217661e-03       4.581139145964e+03 
       2.305253845467e-03       5.526213259940e+03 
       2.902142646694e-03       6.595934756225e+03 
       3.653581126575e-03       7.769884975999e+03 
       4.599586124297e-03       9.006403723934e+03 
       5.790535855613e-03       1.023694888618e+04 
       7.289852736537e-03       1.136159810099e+04 
       9.177380858264e-03       1.224679372253e+04 
       1.155363797618e-02       1.272845090991e+04 
       1.454516844688e-02       1.262841986438e+04 
       1.831128212864e-02       1.180183054299e+04 
       2.305249001576e-02       1.023731069529e+04 
       2.901298739240e-02       8.195546278385e+03 
       3.619158834073e-02       6.295755270016e+03 
       4.263026417247e-02       5.238332158952e+03 
       4.724792708260e-02       4.767648889064e+03 
       5.099226657486e-02       4.493907456004e+03 
       5.430583936422e-02       4.292814975454e+03 
       5.738051994767e-02       4.116673869449e+03 
       6.031559404209e-02       3.943229027411e+03 
       6.316964085735e-02       3.761707428313e+03 
       6.598067658603e-02       3.567911270880e+03 
       6.877523910765e-02       3.362025051988e+03 
       7.157297258683e-02       3.147313423852e+03 
       7.438914718317e-02       2.929099399417e+03 
       7.723613915224e-02       2.713822515759e+03 
       8.012434769684e-02       2.508146241257e+03 
       8.306278797583e-02       2.318154482308e+03 
       8.605948852876e-02       2.148696857518e+03 
       8.912176556326e-02       2.002925319079e+03 
       9.225641689439e-02       1.882030250553e+03 
       9.546986179354e-02       1.785152567170e+03 
       9.876824340760e-02       1.709438938782e+03 
       1.021575046417e-01       1.650230953746e+03 
       1.056434448289e-01       1.601426817126e+03 
       1.092317622449e-01       1.556088865640e+03 
       1.129280860628e-01       1.507350208054e+03 
       1.167380003759e-01       1.449567379599e+03 
       1.206670622841e-01       1.379498525898e+03 
       1.247208156068e-01       1.297141911432e+03 
       1.289048015107e-01       1.205859734772e+03 
       1.332245671456e-01       1.111605633169e+03 
       1.376856732680e-01       1.021411067807e+03 
       1.422937017488e-01       9.415900677087e+02 
       1.470542638171e-01       8.762050696675e+02 
       1.519730098582e-01       8.261670177625e+02 
       1.570556415680e-01       7.890890361071e+02 
       1.623079272506e-01       7.598901503043e+02 
       1.677357210401e-01       7.321507424982e+02 
       1.733449868195e-01       7.000983857874e+02 
       1.791418276156e-01       6.606780236156e+02 
       1.851325212543e-01       6.147316057348e+02 
       1.913235630912e-01       5.664799583963e+02 
       1.977217166803e-01       5.214226867670e+02 
       2.043340733236e-01       4.837592404119e+02 
       2.111681215748e-01       4.546282341818e+02 
       2.182318279542e-01       4.318670981474e+02 
       2.255337303980e-01       4.113022438963e+02 
       2.330830463260e-01       3.890451500579e+02 
       2.408897977058e-01       3.636521960354e+02 
       2.489649561460e-01       3.367194779286e+02 
       2.573206119177e-01       3.114024501785e+02 
       2.659701719552e-01       2.900055920126e+02 
       2.749285934041e-01       2.724743083614e+02 
       2.842126613101e-01       2.567775476039e+02 
       2.938413217511e-01       2.407562396132e+02 
       3.038360853915e-01       2.238918591296e+02 
       3.142215214628e-01       2.074088853849e+02 
       3.250258691579e-01       1.927118327284e+02 
       3.362818032471e-01       1.799038925583e+02 
       3.480274047767e-01       1.679221281168e+02 
       3.603074081308e-01       1.559402335032e+02 
       3.731748259923e-01       1.442345629031e+02 
       3.866930994376e-01       1.334774239514e+02 
       4.009389909638e-01       1.236520534115e+02 
       4.160065498691e-01       1.142223444341e+02 
       4.320126607125e-01       1.050658402952e+02 
       4.491049890082e-01       9.646524352051e+01 
       4.674736632785e-01       8.837832836502e+01 
       4.873689756656e-01       8.057142473776e+01 
       5.091291510947e-01       7.309265730068e+01 
       5.332257128801e-01       6.592964413706e+01 
       5.603412016360e-01       5.896260776909e+01 
       5.915099919591e-01       5.217411392070e+01 
       6.283908053502e-01       4.546573825763e+01 
       6.738355137600e-01       3.874980076229e+01 
       7.331736588565e-01       3.189759565486e+01 
       8.172537593397e-01       2.477817740576e+01 
       9.485678583167e-01       1.745207295933e+01 
       1.159911508476e+00       1.080214319113e+01 
       1.456273548532e+00       6.226128677176e+00 
       1.833245189142e+00       3.536351339698e+00 
       2.307918498235e+00       1.993425274143e+00 
       2.905497245449e+00       1.116090027123e+00 
       3.657804316194e+00       6.210343975979e-01 
       4.604902805027e+00       3.436216685012e-01 
       5.797229160090e+00       1.891462928863e-01 
       7.298279107632e+00       1.036209129210e-01 
       9.187989030964e+00       5.651789013005e-02 
       1.156699287437e+01       3.070072083210e-02 
