# Matter power spectrum P(k) at redshift z=2.5
# for k=2.04926e-07 to 10.2812 h/Mpc,
# number of wavenumbers equal to 139
#    1:k (h/Mpc)              2:P (Mpc/h)^3        
       2.049258758243e-07       1.899031621477e-01 
       2.579863926094e-07       2.368820736175e-01 
       3.247856255531e-07       2.954827930746e-01 
       4.088808773943e-07       3.685803642899e-01 
       5.147505269483e-07       4.597610690509e-01 
       6.480325191097e-07       5.734983759820e-01 
       8.158246059762e-07       7.153724158187e-01 
       1.027062328030e-06       8.923437503524e-01 
       1.292994864254e-06       1.113094867854e+00 
       1.627784091929e-06       1.388456158085e+00 
       2.049258758243e-06       1.731937263224e+00 
       2.579863926094e-06       2.160389873551e+00 
       3.247856255531e-06       2.694834483080e+00 
       4.088808773943e-06       3.361491654535e+00 
       5.147505269483e-06       4.193068376903e+00 
       6.480325191097e-06       5.230362595414e+00 
       8.158246059762e-06       6.524264574449e+00 
       1.027062328030e-05       8.138253147585e+00 
       1.292994864254e-05       1.015150912561e+01 
       1.627784091929e-05       1.266279806764e+01 
       2.049258758243e-05       1.579531206338e+01 
       2.579863926094e-05       1.970270612684e+01 
       3.247856255531e-05       2.457662177355e+01 
       4.088808773943e-05       3.065605964596e+01 
       5.147505269483e-05       3.823904671549e+01 
       6.480325191097e-05       4.769714246136e+01 
       8.158246059762e-05       5.949344011278e+01 
       1.027062328030e-04       7.420483726560e+01 
       1.292994864254e-04       9.254945485531e+01 
       1.627784091929e-04       1.154201332372e+02 
       2.049258758243e-04       1.439248432999e+02 
       2.579863926094e-04       1.794344579651e+02 
       3.247856255531e-04       2.236373538085e+02 
       4.088808773943e-04       2.785983276772e+02 
       5.147505269483e-04       3.468158340948e+02 
       6.480325191097e-04       4.312664749966e+02 
       8.158246059762e-04       5.354203346862e+02 
       1.027062328030e-03       6.632085811560e+02 
       1.292994864254e-03       8.189258003504e+02 
       1.627784091929e-03       1.007030510249e+03 
       2.049258758243e-03       1.231729026794e+03 
       2.579863926094e-03       1.496200896943e+03 
       3.247856255531e-03       1.801530990459e+03 
       4.088808773943e-03       2.145328325326e+03 
       5.147505269483e-03       2.519934797881e+03 
       6.480325191097e-03       2.910449063902e+03 
       8.158246059762e-03       3.292798282602e+03 
       1.027062328030e-02       3.632223192834e+03 
       1.292994864254e-02       3.883151963895e+03 
       1.627784091921e-02       3.992634170832e+03 
       2.049258721772e-02       3.911808638985e+03 
       2.579841335584e-02       3.620984305153e+03 
       3.245212685819e-02       3.166553994630e+03 
       4.013347209837e-02       2.702263114083e+03 
       4.634357390762e-02       2.419182946008e+03 
       5.090247564735e-02       2.255720179326e+03 
       5.470479899486e-02       2.138017606824e+03 
       5.812018484864e-02       2.040249025859e+03 
       6.131679700281e-02       1.951551266075e+03 
       6.438504239109e-02       1.866663919189e+03 
       6.737973918294e-02       1.783006242262e+03 
       7.033720040351e-02       1.699533377780e+03 
       7.328319025596e-02       1.616184060116e+03 
       7.623703757223e-02       1.533548991238e+03 
       7.921393920953e-02       1.452626400451e+03 
       8.222633326297e-02       1.374613457707e+03 
       8.528475994651e-02       1.300719230086e+03 
       8.839842389350e-02       1.231998873272e+03 
       9.157557406997e-02       1.169214001371e+03 
       9.482376773907e-02       1.112727358529e+03 
       9.815005812669e-02       1.062438549051e+03 
       1.015611303401e-01       1.017766767686e+03 
       1.050634012430e-01       9.776874064927e+02 
       1.086630936303e-01       9.408284188363e+02 
       1.123662917041e-01       9.056299210370e+02 
       1.161789827223e-01       8.705596816386e+02 
       1.201070883066e-01       8.343613031887e+02 
       1.241564879824e-01       7.962900531120e+02 
       1.283330369179e-01       7.562757473449e+02 
       1.326425794273e-01       7.149540808159e+02 
       1.370909595313e-01       6.735335167815e+02 
       1.416840296941e-01       6.335126863457e+02 
       1.464276587435e-01       5.963113318820e+02 
       1.513277399031e-01       5.629105229085e+02 
       1.563901998261e-01       5.335975935002e+02 
       1.616210094875e-01       5.078878534986e+02 
       1.670261977765e-01       4.846571270834e+02 
       1.726118686149e-01       4.624739295942e+02 
       1.783842224258e-01       4.400568877937e+02 
       1.843495827648e-01       4.167113838632e+02 
       1.905144289384e-01       3.925616767402e+02 
       1.968854354417e-01       3.684495096033e+02 
       2.034695190852e-01       3.455211898348e+02 
       2.102738947384e-01       3.246903235211e+02 
       2.173061407155e-01       3.062330904049e+02 
       2.245742749773e-01       2.897070576159e+02 
       2.320868435390e-01       2.742301593458e+02 
       2.398530227764e-01       2.589776128904e+02 
       2.478827377390e-01       2.436206242566e+02 
       2.561867991345e-01       2.284356728439e+02 
       2.647770623963e-01       2.140166379800e+02 
       2.736666132263e-01       2.008061317562e+02 
       2.828699853092e-01       1.887925892705e+02 
       2.924034176177e-01       1.775806839836e+02 
       3.022851610267e-01       1.667475810460e+02 
       3.125358470447e-01       1.561686116763e+02 
       3.231789356636e-01       1.460316455219e+02 
       3.342412650919e-01       1.365625980002e+02 
       3.457537341645e-01       1.277689104050e+02 
       3.577521595607e-01       1.194609659495e+02 
       3.702783662535e-01       1.114829540732e+02 
       3.833815933970e-01       1.038513945835e+02 
       3.971203332719e-01       9.664884130789e+01 
       4.115647746867e-01       8.986107028899e+01 
       4.268001057796e-01       8.339606038588e+01 
       4.429310641824e-01       7.721297368730e+01 
       4.600883401803e-01       7.132835678791e+01 
       4.784378057762e-01       6.572293771562e+01 
       4.981941839243e-01       6.034777938766e+01 
       5.196419364431e-01       5.518346136539e+01 
       5.431683575689e-01       5.020843579854e+01 
       5.693182639975e-01       4.538350108462e+01 
       5.988889671652e-01       4.067556441791e+01 
       6.331051243758e-01       3.603904448749e+01 
       6.739634800421e-01       3.141750750739e+01 
       7.249673883427e-01       2.673552382336e+01 
       7.928156914013e-01       2.189429823325e+01 
       8.913757969333e-01       1.680241824114e+01 
       1.048477399683e+00       1.158394148434e+01 
       1.295811986985e+00       7.069717202988e+00 
       1.629482903509e+00       4.103121864657e+00 
       2.051367766539e+00       2.353026448704e+00 
       2.582518919470e+00       1.338019299805e+00 
       3.251198694123e+00       7.550692517234e-01 
       4.093016654823e+00       4.231644861633e-01 
       5.152802677654e+00       2.356682004797e-01 
       6.486994232859e+00       1.304973842134e-01 
       8.166641885908e+00       7.188245611173e-02 
       1.028119299919e+01       3.940493025247e-02 
