# Matter power spectrum P(k) at redshift z=0.5
# for k=2.11257e-07 to 10.5987 h/Mpc,
# number of wavenumbers equal to 139
#    1:k (h/Mpc)              2:P (Mpc/h)^3        
       2.112569576325e-07       8.087888275242e-01 
       2.659567523819e-07       1.005599718405e+00 
       3.348197140119e-07       1.250302624011e+00 
       4.215130463392e-07       1.554551599592e+00 
       5.306534854392e-07       1.932836600778e+00 
       6.680531576765e-07       2.403173571758e+00 
       8.410290966283e-07       2.987962459381e+00 
       1.058792901804e-06       3.715054015416e+00 
       1.332941289908e-06       4.619076192686e+00 
       1.678073662295e-06       5.743083303347e+00 
       2.112569576325e-06       7.140606475250e+00 
       2.659567523819e-06       8.878203051650e+00 
       3.348197140119e-06       1.103862633367e+01 
       4.215130463392e-06       1.372476658672e+01 
       5.306534854392e-06       1.706455093674e+01 
       6.680531576765e-06       2.121703537587e+01 
       8.410290966283e-06       2.637997874420e+01 
       1.058792901804e-05       3.279925886225e+01 
       1.332941289908e-05       4.078057822493e+01 
       1.678073662295e-05       5.070401466051e+01 
       2.112569576325e-05       6.304210588218e+01 
       2.659567523819e-05       7.838232119997e+01 
       3.348197140119e-05       9.745497483283e+01 
       4.215130463392e-05       1.211678791791e+02 
       5.306534854392e-05       1.506493274438e+02 
       6.680531576765e-05       1.873013329290e+02 
       8.410290966283e-05       2.328654262488e+02 
       1.058792901804e-04       2.895036868072e+02 
       1.332941289908e-04       3.598979813462e+02 
       1.678073662295e-04       4.473704330881e+02 
       2.112569576325e-04       5.560276372599e+02 
       2.659567523819e-04       6.909295392377e+02 
       3.348197140119e-04       8.582804305399e+02 
       4.215130463392e-04       1.065633419623e+03 
       5.306534854392e-04       1.322091021385e+03 
       6.680531576765e-04       1.638475102339e+03 
       8.410290966283e-04       2.027430585631e+03 
       1.058792901804e-03       2.503403262013e+03 
       1.332941289908e-03       3.082343851794e+03 
       1.678073662295e-03       3.780864391515e+03 
       2.112569576325e-03       4.614636225594e+03 
       2.659567523819e-03       5.595817470819e+03 
       3.348197140119e-03       6.729196159272e+03 
       4.215130463392e-03       8.007079183953e+03 
       5.306534854392e-03       9.402411698735e+03 
       6.680531576765e-03       1.086067335946e+04 
       8.410290966283e-03       1.229125708699e+04 
       1.058792901804e-02       1.355918787038e+04 
       1.332941289908e-02       1.448119924187e+04 
       1.678073662291e-02       1.483590483441e+04 
       2.112569553900e-02       1.440980368838e+04 
       2.659551660215e-02       1.310918429829e+04 
       3.346128703891e-02       1.113580923698e+04 
       4.149917413573e-02       9.166761251956e+03 
       4.817648173645e-02       8.030192562849e+03 
       5.303782253460e-02       7.446852330563e+03 
       5.706261917228e-02       7.067297413208e+03 
       6.066373068564e-02       6.771953222412e+03 
       6.402647160699e-02       6.510496019374e+03 
       6.724945061557e-02       6.257703473671e+03 
       7.039202002225e-02       6.000308142537e+03 
       7.349327822445e-02       5.732121356557e+03 
       7.658084316769e-02       5.451819243824e+03 
       7.967535865350e-02       5.161658199114e+03 
       8.279300495841e-02       4.866491823275e+03 
       8.594698957090e-02       4.572855278178e+03 
       8.914847870670e-02       4.288052587732e+03 
       9.240720411834e-02       4.019264991892e+03 
       9.573187217433e-02       3.772734674295e+03 
       9.913044756909e-02       3.553082422801e+03 
       1.026103547260e-01       3.362802368584e+03 
       1.061786234922e-01       3.201954300291e+03 
       1.098419961003e-01       3.068061384559e+03 
       1.136070065559e-01       2.956230468315e+03 
       1.174800399886e-01       2.859535781006e+03 
       1.214673772024e-01       2.769727644593e+03 
       1.255752281636e-01       2.678303071480e+03 
       1.298097571788e-01       2.577879240752e+03 
       1.341771018630e-01       2.463649635219e+03 
       1.386833875602e-01       2.334543776201e+03 
       1.433347385912e-01       2.193658959330e+03 
       1.481372875114e-01       2.047673718175e+03 
       1.530971834383e-01       1.905274701031e+03 
       1.582206004303e-01       1.774993959326e+03 
       1.635137468488e-01       1.663066073297e+03 
       1.689828766045e-01       1.571871648857e+03 
       1.746343031709e-01       1.499321464128e+03 
       1.804744172320e-01       1.439341284530e+03 
       1.865097088261e-01       1.383501489370e+03 
       1.927467948412e-01       1.323615615937e+03 
       1.991924527210e-01       1.254632947554e+03 
       2.058536612550e-01       1.176606343324e+03 
       2.127376493603e-01       1.094562954693e+03 
       2.198519538212e-01       1.016084819274e+03 
       2.272044870522e-01       9.477429087924e+02 
       2.348036161028e-01       8.921613949148e+02 
       2.426582543395e-01       8.470476682358e+02 
       2.507779675550e-01       8.065891439445e+02 
       2.591730966759e-01       7.646690693384e+02 
       2.678548998165e-01       7.183248241646e+02 
       2.768357171884e-01       6.692533628470e+02 
       2.861291633860e-01       6.221549613116e+02 
       2.957503529084e-01       5.811013759604e+02 
       3.057161665431e-01       5.466844134899e+02 
       3.160455686026e-01       5.159860299807e+02 
       3.267599881694e-01       4.852664595433e+02 
       3.378837818055e-01       4.531367980101e+02 
       3.494448010847e-01       4.213475137429e+02 
       3.614750965147e-01       3.924868864501e+02 
       3.740118010097e-01       3.671401957041e+02 
       3.870982526942e-01       3.435713228604e+02 
       4.007854410705e-01       3.200608337542e+02 
       4.151338966233e-01       2.968786634737e+02 
       4.302161986013e-01       2.753640533551e+02 
       4.461203604863e-01       2.556986847715e+02 
       4.629544873826e-01       2.368320816951e+02 
       4.808533195683e-01       2.183767088484e+02 
       4.999876468122e-01       2.009314131237e+02 
       5.205782231235e-01       1.845075827717e+02 
       5.429169791533e-01       1.685686289995e+02 
       5.674005368023e-01       1.532080289920e+02 
       5.945854155821e-01       1.384424725357e+02 
       6.252835355936e-01       1.239867140921e+02 
       6.607372547968e-01       1.098251251104e+02 
       7.029626732292e-01       9.572623027900e+01 
       7.554769112104e-01       8.149568847639e+01 
       8.249623597448e-01       6.683237507552e+01 
       9.251942756819e-01       5.146145463007e+01 
       1.084142708724e+00       3.567954815638e+01 
       1.336275420209e+00       2.183180015353e+01 
       1.679815731573e+00       1.263166875940e+01 
       2.114718699011e+00       7.216658706428e+00 
       2.662272955819e+00       4.088507762185e+00 
       3.351603077139e+00       2.298853141098e+00 
       4.219418284058e+00       1.283744323835e+00 
       5.311932900789e+00       7.124150489574e-01 
       6.687327314549e+00       3.931059186084e-01 
       8.418846293271e+00       2.157816917739e-01 
       1.059869953659e+01       1.178769781584e-01 
