# Matter power spectrum P(k) at redshift z=0.5
# for k=2.06389e-07 to 10.3545 h/Mpc,
# number of wavenumbers equal to 139
#    1:k (h/Mpc)              2:P (Mpc/h)^3        
       2.063887775800e-07       8.044559710240e-01 
       2.598280768046e-07       1.003465115482e+00 
       3.271041685869e-07       1.251705840836e+00 
       4.117997501379e-07       1.561357228012e+00 
       5.184251700190e-07       1.947611261144e+00 
       6.526586206507e-07       2.429418169599e+00 
       8.216485227637e-07       3.030416154766e+00 
       1.034394204870e-06       3.780091114851e+00 
       1.302225150324e-06       4.715223263751e+00 
       1.639404333620e-06       5.881691616901e+00 
       2.063887775800e-06       7.336724866030e+00 
       2.598280768046e-06       9.151709067282e+00 
       3.271041685869e-06       1.141568987286e+01 
       4.117997501379e-06       1.423974108831e+01 
       5.184251700190e-06       1.776241380681e+01 
       6.526586206507e-06       2.215653331177e+01 
       8.216485227637e-06       2.763767690134e+01 
       1.034394204870e-05       3.447474797299e+01 
       1.302225150324e-05       4.300316394769e+01 
       1.639404333620e-05       5.364130268146e+01 
       2.063887775800e-05       6.691100960380e+01 
       2.598280768046e-05       8.346316241846e+01 
       3.271041685869e-05       1.041095294132e+02 
       4.117997501379e-05       1.298624483589e+02 
       5.184251700190e-05       1.619842017786e+02 
       6.526586206507e-05       2.020483711297e+02 
       8.216485227637e-05       2.520159056343e+02 
       1.034394204870e-04       3.143291004191e+02 
       1.302225150324e-04       3.920270497063e+02 
       1.639404333620e-04       4.888862257156e+02 
       2.063887775800e-04       6.095892587130e+02 
       2.598280768046e-04       7.599231176646e+02 
       3.271041685869e-04       9.470037837227e+02 
       4.117997501379e-04       1.179517226097e+03 
       5.184251700190e-04       1.467956043462e+03 
       6.526586206507e-04       1.824819833599e+03 
       8.216485227637e-04       2.264736749247e+03 
       1.034394204870e-03       2.804434744374e+03 
       1.302225150324e-03       3.462385187810e+03 
       1.639404333620e-03       4.257793934162e+03 
       2.063887775800e-03       5.208703221444e+03 
       2.598280768046e-03       6.328973697480e+03 
       3.271041685869e-03       7.623792006655e+03 
       4.117997501379e-03       9.083721362430e+03 
       5.184251700190e-03       1.067700747497e+04 
       6.526586206507e-03       1.234080672450e+04 
       8.216485227637e-03       1.397235861956e+04 
       1.034394204870e-02       1.542144456880e+04 
       1.302225150324e-02       1.648846623007e+04 
       1.639404333614e-02       1.693811123161e+04 
       2.063887744175e-02       1.654977471499e+04 
       2.598260409390e-02       1.523223665668e+04 
       3.268583286384e-02       1.319655257014e+04 
       4.045752692495e-02       1.114126130473e+04 
       4.678951240052e-02       9.918140491070e+03 
       5.142615078899e-02       9.239886200105e+03 
       5.528513073731e-02       8.766405183994e+03 
       5.874751073874e-02       8.379763165250e+03 
       6.198596957216e-02       8.030296969343e+03 
       6.509306569920e-02       7.693685760954e+03 
       6.812480216373e-02       7.357762313797e+03 
       7.111821703463e-02       7.017438371943e+03 
       7.409955517476e-02       6.672294862764e+03 
       7.708848506156e-02       6.325139188475e+03 
       8.010045659416e-02       5.980918458764e+03 
       8.314810510102e-02       5.645761595389e+03 
       8.624213069301e-02       5.326086189120e+03 
       8.939187218260e-02       5.027776422618e+03 
       9.260569459780e-02       4.755468945818e+03 
       9.589125828473e-02       4.511986835727e+03 
       9.925571014318e-02       4.297955823145e+03 
       1.027058220831e-01       4.111628518455e+03 
       1.062480927378e-01       3.948942341708e+03 
       1.098888229899e-01       3.803845382962e+03 
       1.136341724516e-01       3.668924605398e+03 
       1.174902018655e-01       3.536346358745e+03 
       1.214629049765e-01       3.399049895568e+03 
       1.255582324970e-01       3.252021089203e+03 
       1.297821101640e-01       3.093358909776e+03 
       1.341404524793e-01       2.924795379816e+03 
       1.386391734465e-01       2.751406516092e+03 
       1.432841954419e-01       2.580467955991e+03 
       1.480814572351e-01       2.419689449082e+03 
       1.530369221076e-01       2.275283800712e+03 
       1.581565869637e-01       2.150383831428e+03 
       1.634464933056e-01       2.044220883704e+03 
       1.689127409228e-01       1.952306432711e+03 
       1.745615051334e-01       1.867676556536e+03 
       1.803990584086e-01       1.783018170669e+03 
       1.864317972067e-01       1.693125622339e+03 
       1.926662748465e-01       1.596763634660e+03 
       1.991092412656e-01       1.496997273919e+03 
       2.057676905395e-01       1.399654759622e+03 
       2.126489171019e-01       1.310566654136e+03 
       2.197605816984e-01       1.232908870265e+03 
       2.271107882601e-01       1.165911501444e+03 
       2.347081730968e-01       1.105523066576e+03 
       2.425620081164e-01       1.046724690230e+03 
       2.506823201917e-01       9.863160960296e+02 
       2.590800293612e-01       9.245228829733e+02 
       2.677671092944e-01       8.643347165969e+02 
       2.767567744465e-01       8.090545434007e+02 
       2.860636996323e-01       7.598923230104e+02 
       2.957042794879e-01       7.153498490682e+02 
       3.056969375990e-01       6.727268918412e+02 
       3.160624981799e-01       6.304115633664e+02 
       3.268246374084e-01       5.889421378079e+02 
       3.380104373103e-01       5.499567355573e+02 
       3.496510731552e-01       5.142618037305e+02 
       3.617826767204e-01       4.810935240247e+02 
       3.744474341306e-01       4.492061978322e+02 
       3.876950008643e-01       4.182971589061e+02 
       4.015843520459e-01       3.889838085516e+02 
       4.161862400834e-01       3.615960944858e+02 
       4.315865154628e-01       3.356692719612e+02 
       4.478906997846e-01       3.107477721382e+02 
       4.652304180901e-01       2.869471138047e+02 
       4.837726650364e-01       2.643740319095e+02 
       5.037335207629e-01       2.427549182819e+02 
       5.253990954100e-01       2.219352424145e+02 
       5.491586853921e-01       2.019120304480e+02 
       5.755595149578e-01       1.825028643184e+02 
       6.054016913846e-01       1.635641150106e+02 
       6.399127936954e-01       1.449289276192e+02 
       6.810915682949e-01       1.263632553660e+02 
       7.324389978191e-01       1.075684292976e+02 
       8.006369287036e-01       8.815061332725e+01 
       8.995011988660e-01       6.774130181728e+01 
       1.056859465519e+00       4.680315752078e+01 
       1.305169724638e+00       2.860366393615e+01 
       1.641105573973e+00       1.659840466656e+01 
       2.065996250640e+00       9.515748860148e+00 
       2.600935074934e+00       5.409511322881e+00 
       3.274383260215e+00       3.051943923279e+00 
       4.122204294238e+00       1.710032729997e+00 
       5.189547738623e+00       9.521626616496e-01 
       6.533253523871e+00       5.271495589001e-01 
       8.224878882896e+00       2.903229346353e-01 
       1.035450903461e+01       1.591245470911e-01 
